Name
Date of Birth,"Aug 26, 1996"
Recorded Date,2018-12-15 17:50:17 -0500
Classification,Sinus Rhythm
Symptoms,
Software Version,1.1
Device,"Watch4,2"
Sample Rate,512.352 hertz


Lead,Lead I
Unit,µV

-484.965
-661.081
-689.273
-671.865
-678.356
-681.88
-670.423
-667.097
-672.583
-673.496
-666.937
-654.591
-639.947
-627.884
-619.723
-614.324
-610.586
-606.948
-601.967
-595.041
-585.816
-574.111
-560.333
-545.069
-528.723
-511.827
-494.99
-478.569
-462.818
-447.89
-433.699
-420.148
-407.199
-394.774
-382.812
-371.306
-360.23
-349.556
-339.268
-329.347
-319.786
-310.588
-301.752
-293.279
-285.153
-277.362
-269.92
-262.822
-256.037
-249.503
-243.11
-236.732
-230.273
-223.673
-216.9
-209.929
-202.724
-195.249
-187.481
-179.401
-170.992
-162.227
-153.05
-143.432
-133.38
-122.944
-112.224
-101.347
-90.431
-79.565
-68.82
-58.248
-47.897
-37.807
-28.004
-18.507
-9.345
-0.558
7.787
15.636
22.958
29.756
36.058
41.917
47.391
52.523
57.348
61.888
66.153
70.143
73.849
77.258
80.357
83.151
85.656
87.887
89.856
91.56
92.988
94.122
94.936
95.413
95.536
95.3
94.712
93.785
92.539
90.997
89.178
87.101
84.783
82.242
79.499
76.578
73.513
70.348
67.134
63.924
60.765
57.697
54.747
51.947
49.328
46.93
44.799
42.975
41.495
40.392
39.702
39.433
39.572
40.082
40.896
41.968
43.277
44.794
46.478
48.276
50.109
51.887
53.544
54.965
55.974
56.522
56.692
56.729
57.103
58.254
60.453
64.065
69.546
76.899
85.743
95.255
104.043
111.076
115.952
118.135
117.047
113.008
107.061
101.172
98.345
100.86
109.973
127.242
154.377
192.008
239.851
296.17
357.634
421.459
485.46
546.416
600.04
642.328
669.753
679.738
670.848
641.272
589.227
516.187
427.45
328.301
222.545
109.332
-14.92
-147.427
-276.924
-383.613
-447.876
-461.411
-429.489
-370.178
-302.871
-239.138
-182.099
-127.799
-73.075
-19.572
27.838
63.811
86.533
97.423
99.246
95.433
88.35
80.135
73.763
71.036
72.487
78.069
86.763
97.288
108.831
120.24
129.9
136.928
141.006
142.122
140.847
137.777
133.275
127.901
122.356
117.073
112.348
108.356
105.055
102.423
100.486
99.187
98.444
98.196
98.366
98.89
99.728
100.807
102.048
103.38
104.721
105.997
107.141
108.08
108.746
109.097
109.109
108.777
108.111
107.132
105.866
104.356
102.65
100.796
98.84
96.824
94.786
92.767
90.809
88.954
87.248
85.725
84.413
83.337
82.514
81.96
81.686
81.699
82
82.592
83.48
84.667
86.161
87.964
90.078
92.502
95.234
98.271
101.608
105.242
109.163
113.366
117.84
122.575
127.562
132.788
138.238
143.895
149.741
155.756
161.919
168.209
174.602
181.075
187.604
194.164
200.73
207.278
213.78
220.212
226.546
232.757
238.816
244.698
250.376
255.824
261.015
265.923
270.526
274.798
278.717
282.261
285.409
288.143
290.445
292.297
293.687
294.6
295.025
294.953
294.376
293.29
291.69
289.576
286.947
283.807
280.16
276.013
271.374
266.254
260.667
254.627
248.151
241.259
233.972
226.313
218.307
209.983
201.366
192.489
183.381
174.075
164.603
155.001
145.303
135.543
125.757
115.98
106.248
96.596
87.057
77.666
68.456
59.458
50.704
42.222
34.04
26.186
18.683
11.555
4.822
-1.496
-7.384
-12.829
-17.817
-22.342
-26.398
-29.98
-33.09
-35.728
-37.9
-39.614
-40.879
-41.709
-42.118
-42.123
-41.744
-41.002
-39.921
-38.527
-36.844
-34.903
-32.73
-30.358
-27.816
-25.137
-22.352
-19.494
-16.596
-13.689
-10.806
-7.978
-5.237
-2.612
-0.131
2.178
4.29
6.182
7.83
9.217
10.324
11.137
11.641
11.828
11.688
11.215
10.408
9.265
7.787
5.978
3.845
1.396
-1.359
-4.408
-7.737
-11.33
-15.17
-19.238
-23.514
-27.978
-32.607
-37.378
-42.266
-47.249
-52.301
-57.399
-62.517
-67.631
-72.719
-77.758
-82.726
-87.602
-92.366
-97
-101.487
-105.812
-109.961
-113.921
-117.681
-121.233
-124.569
-127.683
-130.571
-133.231
-135.661
-137.862
-139.834
-141.581
-143.107
-144.417
-145.518
-146.417
-147.123
-147.645
-147.994
-148.179
-148.214
-148.108
-147.875
-147.526
-147.073
-146.529
-145.905
-145.214
-144.465
-143.671
-142.84
-141.983
-141.107
-140.223
-139.335
-138.452
-137.579
-136.722
-135.884
-135.069
-134.282
-133.525
-132.799
-132.108
-131.451
-130.83
-130.245
-129.697
-129.184
-128.706
-128.262
-127.85
-127.47
-127.119
-126.796
-126.499
-126.227
-125.977
-125.748
-125.539
-125.347
-125.172
-125.012
-124.868
-124.739
-124.625
-124.526
-124.442
-124.375
-124.324
-124.292
-124.28
-124.287
-124.317
-124.369
-124.445
-124.546
-124.673
-124.828
-125.011
-125.222
-125.463
-125.733
-126.032
-126.362
-126.722
-127.111
-127.529
-127.976
-128.45
-128.952
-129.48
-130.032
-130.607
-131.202
-131.817
-132.448
-133.093
-133.748
-134.412
-135.08
-135.751
-136.42
-137.084
-137.74
-138.385
-139.016
-139.629
-140.222
-140.792
-141.338
-141.856
-142.346
-142.805
-143.233
-143.628
-143.991
-144.319
-144.614
-144.876
-145.104
-145.299
-145.462
-145.593
-145.694
-145.767
-145.813
-145.834
-145.831
-145.809
-145.767
-145.71
-145.64
-145.56
-145.472
-145.379
-145.284
-145.19
-145.099
-145.014
-144.938
-144.871
-144.817
-144.775
-144.748
-144.735
-144.736
-144.752
-144.78
-144.821
-144.873
-144.933
-145.001
-145.073
-145.146
-145.218
-145.285
-145.343
-145.387
-145.414
-145.418
-145.395
-145.338
-145.244
-145.107
-144.922
-144.682
-144.383
-144.018
-143.583
-143.072
-142.479
-141.8
-141.03
-140.165
-139.202
-138.139
-136.973
-135.702
-134.326
-132.846
-131.262
-129.575
-127.788
-125.903
-123.925
-121.858
-119.708
-117.479
-115.179
-112.816
-110.399
-107.939
-105.446
-102.931
-100.406
-97.883
-95.374
-92.888
-90.436
-88.026
-85.668
-83.372
-81.148
-79.007
-76.957
-75.006
-73.162
-71.429
-69.812
-68.309
-66.917
-65.631
-64.448
-63.372
-62.407
-61.561
-60.831
-60.219
-59.721
-59.325
-59.018
-58.78
-58.578
-58.383
-58.172
-57.925
-57.628
-57.266
-56.813
-56.235
-55.493
-54.554
-53.393
-51.986
-50.325
-48.43
-46.333
-44.095
-41.787
-39.463
-37.184
-35.022
-33.051
-31.366
-30.074
-29.261
-29.057
-29.642
-31.057
-33.217
-35.892
-38.636
-41.03
-42.788
-43.48
-42.569
-39.96
-35.93
-31.162
-26.882
-23.988
-22.822
-23.98
-28.183
-35.243
-44.254
-53.382
-59.711
-61.059
-56.134
-42.996
-19.478
15.482
62.018
118.436
181.287
247.865
315.736
380.789
437.866
481.982
508.621
515.246
500.648
462.853
400.518
316.101
215.615
105.491
-8.979
-127.879
-253.664
-382.317
-503.168
-598.783
-652.075
-656.988
-619.352
-555.054
-481.619
-410.072
-343.727
-280.041
-216.925
-156.021
-101.913
-59.666
-30.878
-14.077
-6.613
-5.067
-7.05
-10.507
-12.46
-11.072
-5.847
3.179
15.018
28.365
42.4
55.956
67.377
75.804
80.975
82.935
82.349
79.88
75.967
71.296
66.668
62.598
59.453
57.409
56.379
56.324
57.235
59.025
61.603
64.875
68.724
73.067
77.832
82.922
88.236
93.646
99.016
104.226
109.161
113.742
117.929
121.694
125.033
127.958
130.487
132.654
134.509
136.099
137.472
138.675
139.75
140.749
141.728
142.741
143.841
145.066
146.44
147.984
149.711
151.63
153.746
156.06
158.562
161.253
164.131
167.198
170.456
173.905
177.54
181.357
185.352
189.519
193.857
198.36
203.022
207.839
212.807
217.922
223.179
228.572
234.089
239.72
245.451
251.269
257.158
263.101
269.076
275.069
281.063
287.045
292.999
298.904
304.737
310.481
316.119
321.629
326.991
332.18
337.166
341.935
346.469
350.751
354.77
358.498
361.913
364.995
367.725
370.094
372.096
373.711
374.917
375.708
376.076
376.026
375.571
374.694
373.386
371.654
369.502
366.946
363.999
360.655
356.906
352.738
348.134
343.089
337.611
331.686
325.306
318.462
311.137
303.345
295.1
286.38
277.169
267.455
257.241
246.559
235.468
224.024
212.302
200.386
188.345
176.26
164.212
152.262
140.483
128.928
117.657
106.758
96.33
86.448
77.172
68.535
60.533
53.16
46.389
40.154
34.408
29.104
24.198
19.668
15.491
11.639
8.083
4.777
1.659
-1.318
-4.19
-6.987
-9.711
-12.359
-14.913
-17.325
-19.556
-21.58
-23.38
-24.956
-26.315
-27.456
-28.384
-29.105
-29.614
-29.911
-30
-29.881
-29.568
-29.081
-28.446
-27.706
-26.898
-26.051
-25.19
-24.332
-23.489
-22.673
-21.894
-21.153
-20.457
-19.814
-19.23
-18.715
-18.276
-17.915
-17.634
-17.43
-17.301
-17.244
-17.258
-17.341
-17.493
-17.713
-18.001
-18.361
-18.793
-19.296
-19.869
-20.51
-21.213
-21.978
-22.799
-23.672
-24.594
-25.561
-26.569
-27.616
-28.698
-29.813
-30.956
-32.124
-33.315
-34.524
-35.749
-36.985
-38.231
-39.483
-40.737
-41.992
-43.244
-44.491
-45.73
-46.958
-48.171
-49.368
-50.545
-51.7
-52.829
-53.931
-55.003
-56.043
-57.049
-58.02
-58.955
-59.852
-60.711
-61.53
-62.308
-63.044
-63.738
-64.388
-64.996
-65.559
-66.079
-66.556
-66.989
-67.379
-67.726
-68.031
-68.296
-68.519
-68.704
-68.852
-68.963
-69.04
-69.086
-69.102
-69.091
-69.055
-68.997
-68.92
-68.825
-68.715
-68.593
-68.461
-68.321
-68.177
-68.029
-67.881
-67.734
-67.59
-67.452
-67.32
-67.196
-67.082
-66.978
-66.887
-66.808
-66.744
-66.694
-66.66
-66.643
-66.643
-66.66
-66.694
-66.745
-66.812
-66.896
-66.995
-67.109
-67.238
-67.38
-67.535
-67.702
-67.882
-68.073
-68.275
-68.487
-68.71
-68.943
-69.186
-69.441
-69.707
-69.985
-70.277
-70.584
-70.907
-71.248
-71.607
-71.987
-72.389
-72.815
-73.265
-73.742
-74.247
-74.782
-75.348
-75.947
-76.582
-77.252
-77.96
-78.707
-79.493
-80.319
-81.185
-82.09
-83.034
-84.017
-85.038
-86.095
-87.187
-88.311
-89.464
-90.645
-91.848
-93.07
-94.307
-95.553
-96.803
-98.052
-99.295
-100.526
-101.74
-102.931
-104.093
-105.221
-106.309
-107.353
-108.346
-109.284
-110.162
-110.976
-111.723
-112.401
-113.006
-113.539
-113.998
-114.386
-114.702
-114.95
-115.131
-115.248
-115.305
-115.306
-115.254
-115.151
-115.001
-114.809
-114.581
-114.322
-114.038
-113.735
-113.42
-113.101
-112.787
-112.481
-112.183
-111.894
-111.617
-111.356
-111.12
-110.915
-110.74
-110.596
-110.485
-110.404
-110.35
-110.305
-110.235
-110.109
-109.898
-109.582
-109.152
-108.595
-107.888
-107.015
-105.95
-104.679
-103.207
-101.527
-99.63
-97.527
-95.242
-92.836
-90.425
-88.109
-85.974
-84.103
-82.53
-81.317
-80.554
-80.311
-80.673
-81.713
-83.434
-85.887
-89.174
-93.21
-97.803
-102.616
-107.028
-110.534
-112.777
-113.256
-111.622
-107.933
-102.426
-95.742
-88.979
-82.877
-78.05
-75.346
-75.012
-76.544
-79.006
-80.668
-79.403
-73.622
-61.532
-40.91
-10.465
29.991
79.613
136.18
196.93
259.145
318.856
370.761
409.938
432.307
434.525
414.408
370.724
302.618
213.046
109.09
-4.339
-123.082
-244.509
-369.728
-491.107
-594.509
-668.065
-698.858
-686.424
-643.274
-581.182
-513.749
-448.16
-383.169
-319.432
-258.069
-202.392
-157.826
-126.204
-106.914
-98.008
-95.917
-98.003
-102
-104.821
-104.56
-100.501
-92.393
-81.022
-67.663
-53.208
-38.896
-26.449
-16.807
-10.343
-7.13
-6.617
-8.175
-11.378
-15.552
-19.851
-23.725
-26.775
-28.778
-29.795
-29.858
-28.956
-27.167
-24.591
-21.316
-17.463
-13.128
-8.374
-3.302
1.991
7.39
12.756
17.958
22.876
27.421
31.549
35.231
38.453
41.216
43.533
45.437
46.978
48.209
49.176
49.926
50.502
50.957
51.353
51.748
52.201
52.755
53.441
54.285
55.311
56.536
57.974
59.63
61.506
63.606
65.936
68.506
71.322
74.391
77.715
81.296
85.135
89.234
93.594
98.215
103.095
108.233
113.624
119.266
125.153
131.277
137.629
144.194
150.959
157.906
165.018
172.275
179.654
187.134
194.691
202.3
209.937
217.576
225.19
232.75
240.23
247.601
254.833
261.898
268.766
275.408
281.795
287.899
293.69
299.142
304.229
308.924
313.203
317.043
320.423
323.322
325.721
327.605
328.958
329.767
330.023
329.717
328.844
327.399
325.382
322.793
319.637
315.919
311.647
306.831
301.483
295.618
289.251
282.402
275.089
267.337
259.167
250.606
241.68
232.417
222.845
212.995
202.897
192.583
182.083
171.43
160.656
149.793
138.872
127.925
116.982
106.074
95.228
84.472
73.833
63.336
53.004
42.86
32.924
23.215
13.75
4.545
-4.386
-13.031
-21.379
-29.421
-37.149
-44.558
-51.642
-58.401
-64.831
-70.932
-76.706
-82.155
-87.281
-92.09
-96.586
-100.777
-104.668
-108.268
-111.585
-114.628
-117.407
-119.93
-122.208
-124.251
-126.067
-127.667
-129.061
-130.258
-131.266
-132.096
-132.754
-133.251
-133.594
-133.79
-133.848
-133.773
-133.574
-133.256
-132.826
-132.29
-131.655
-130.925
-130.108
-129.207
-128.229
-127.179
-126.061
-124.88
-123.642
-122.349
-121.008
-119.621
-118.193
-116.729
-115.233
-113.707
-112.158
-110.588
-109.003
-107.406
-105.801
-104.193
-102.586
-100.985
-99.393
-97.814
-96.254
-94.717
-93.205
-91.722
-90.273
-88.86
-87.485
-86.152
-84.863
-83.62
-82.423
-81.276
-80.178
-79.131
-78.135
-77.191
-76.299
-75.458
-74.668
-73.929
-73.238
-72.596
-72
-71.45
-70.942
-70.476
-70.048
-69.657
-69.299
-68.972
-68.673
-68.399
-68.145
-67.91
-67.689
-67.481
-67.281
-67.087
-66.897
-66.707
-66.516
-66.321
-66.12
-65.911
-65.692
-65.461
-65.217
-64.959
-64.685
-64.394
-64.087
-63.761
-63.417
-63.053
-62.671
-62.27
-61.849
-61.409
-60.951
-60.474
-59.98
-59.47
-58.944
-58.404
-57.851
-57.287
-56.711
-56.127
-55.533
-54.933
-54.325
-53.712
-53.094
-52.472
-51.845
-51.216
-50.585
-49.952
-49.317
-48.681
-48.045
-47.408
-46.77
-46.131
-45.492
-44.852
-44.211
-43.568
-42.923
-42.276
-41.625
-40.97
-40.31
-39.643
-38.968
-38.284
-37.59
-36.883
-36.162
-35.428
-34.677
-33.911
-33.127
-32.327
-31.509
-30.674
-29.822
-28.954
-28.068
-27.167
-26.25
-25.318
-24.373
-23.414
-22.443
-21.462
-20.473
-19.477
-18.476
-17.474
-16.472
-15.475
-14.485
-13.506
-12.542
-11.598
-10.676
-9.783
-8.922
-8.099
-7.316
-6.579
-5.89
-5.254
-4.672
-4.147
-3.68
-3.27
-2.92
-2.63
-2.4
-2.232
-2.126
-2.082
-2.103
-2.191
-2.344
-2.564
-2.846
-3.189
-3.587
-4.037
-4.531
-5.064
-5.626
-6.209
-6.81
-7.424
-8.042
-8.656
-9.253
-9.824
-10.369
-10.885
-11.375
-11.844
-12.299
-12.752
-13.228
-13.746
-14.326
-14.982
-15.713
-16.521
-17.405
-18.368
-19.411
-20.529
-21.696
-22.884
-24.07
-25.225
-26.32
-27.316
-28.147
-28.762
-29.127
-29.21
-29.011
-28.537
-27.794
-26.795
-25.567
-24.147
-22.595
-20.988
-19.383
-17.841
-16.425
-15.199
-14.26
-13.69
-13.54
-13.858
-14.659
-15.943
-17.71
-19.949
-22.627
-25.71
-29.146
-32.858
-36.795
-40.919
-45.203
-49.629
-54.145
-58.696
-63.23
-67.713
-72.15
-76.561
-80.98
-85.447
-89.969
-94.588
-99.392
-104.344
-109.278
-113.891
-117.639
-120.054
-120.851
-119.608
-116.018
-110.233
-102.61
-93.946
-85.513
-78.142
-72.486
-69.451
-69.281
-71.368
-74.593
-76.849
-75.659
-69.337
-55.905
-32.974
0.718
45.442
100.172
162.177
228.616
296.931
363.082
421.862
468.501
498.71
509.568
499.523
467.003
410.772
333.287
240.812
137.906
28.447
-86.168
-208.029
-329.638
-437.226
-518.396
-559.559
-560.196
-531.741
-483.936
-429.023
-373.373
-314.73
-254.22
-193.164
-134.086
-83.587
-45.178
-19.019
-4.349
1.254
0.719
-4.142
-11.183
-17.321
-20.74
-20.769
-17.14
-10.542
-2.053
7.667
17.513
25.813
31.714
34.923
35.397
33.704
30.42
25.925
20.88
16.108
12.138
9.307
7.768
7.416
8.191
10.087
13.011
16.846
21.478
26.781
32.663
39.064
45.897
53.047
60.382
67.758
75.044
82.147
89.008
95.586
101.857
107.808
113.439
118.764
123.812
128.615
133.2
137.597
141.832
145.939
149.961
153.944
157.932
161.955
166.032
170.177
174.398
178.702
183.093
187.567
192.119
196.747
201.45
206.233
211.1
216.054
221.095
226.224
231.442
236.751
242.154
247.654
253.253
258.952
264.754
270.661
276.674
282.792
289.011
295.326
301.729
308.211
314.764
321.375
328.031
334.717
341.42
348.122
354.807
361.455
368.049
374.565
380.984
387.283
393.438
399.424
405.217
410.793
416.124
421.186
425.952
430.397
434.495
438.221
441.553
444.465
446.935
448.944
450.469
451.494
452.002
451.977
451.407
450.28
448.589
446.325
443.485
440.067
436.07
431.498
426.354
420.646
414.384
407.58
400.248
392.404
384.069
375.263
366.01
356.336
346.268
335.835
325.069
314
302.663
291.092
279.322
267.388
255.328
243.176
230.971
218.748
206.543
194.393
182.331
170.392
158.609
147.013
135.635
124.504
113.648
103.093
92.862
82.979
73.463
64.333
55.605
47.293
39.409
31.962
24.959
18.406
12.306
6.659
1.464
-3.281
-7.58
-11.441
-14.871
-17.88
-20.479
-22.68
-24.497
-25.944
-27.037
-27.793
-28.228
-28.362
-28.211
-27.797
-27.137
-26.252
-25.162
-23.887
-22.447
-20.863
-19.154
-17.341
-15.441
-13.475
-11.458
-9.41
-7.346
-5.283
-3.234
-1.216
0.759
2.678
4.528
6.299
7.979
9.559
11.031
12.385
13.614
14.712
15.673
16.492
17.164
17.686
18.055
18.268
18.326
18.228
17.974
17.566
17.006
16.298
15.444
14.45
13.319
12.057
10.67
9.164
7.545
5.82
3.996
2.082
0.084
-1.988
-4.127
-6.323
-8.568
-10.852
-13.166
-15.5
-17.846
-20.193
-22.532
-24.854
-27.149
-29.408
-31.621
-33.782
-35.881
-37.912
-39.867
-41.742
-43.529
-45.225
-46.826
-48.328
-49.728
-51.025
-52.217
-53.303
-54.285
-55.162
-55.937
-56.612
-57.19
-57.675
-58.073
-58.387
-58.625
-58.793
-58.898
-58.949
-58.954
-58.922
-58.863
-58.788
-58.705
-58.627
-58.564
-58.526
-58.524
-58.569
-58.67
-58.838
-59.081
-59.408
-59.829
-60.35
-60.979
-61.722
-62.586
-63.575
-64.693
-65.945
-67.333
-68.859
-70.524
-72.327
-74.268
-76.345
-78.555
-80.896
-83.361
-85.947
-88.646
-91.452
-94.357
-97.351
-100.425
-103.569
-106.773
-110.026
-113.317
-116.633
-119.964
-123.298
-126.623
-129.929
-133.204
-136.436
-139.615
-142.731
-145.774
-148.733
-151.6
-154.367
-157.026
-159.569
-161.99
-164.283
-166.444
-168.468
-170.353
-172.095
-173.694
-175.148
-176.459
-177.628
-178.658
-179.551
-180.313
-180.949
-181.464
-181.867
-182.164
-182.363
-182.472
-182.502
-182.46
-182.357
-182.202
-182.006
-181.78
-181.534
-181.28
-181.028
-180.789
-180.576
-180.399
-180.27
-180.198
-180.195
-180.27
-180.434
-180.697
-181.067
-181.554
-182.164
-182.905
-183.784
-184.806
-185.976
-187.297
-188.771
-190.403
-192.192
-194.141
-196.248
-198.515
-200.94
-203.522
-206.259
-209.149
-212.188
-215.371
-218.694
-222.151
-225.733
-229.434
-233.244
-237.154
-241.152
-245.229
-249.375
-253.577
-257.825
-262.108
-266.414
-270.733
-275.052
-279.358
-283.637
-287.877
-292.067
-296.193
-300.245
-304.209
-308.073
-311.828
-315.465
-318.97
-322.33
-325.526
-328.544
-331.377
-334.021
-336.476
-338.745
-340.835
-342.761
-344.552
-346.232
-347.825
-349.35
-350.816
-352.24
-353.643
-355.05
-356.494
-357.991
-359.541
-361.144
-362.795
-364.475
-366.159
-367.796
-369.311
-370.646
-371.761
-372.632
-373.26
-373.638
-373.757
-373.62
-373.233
-372.632
-371.878
-371.034
-370.164
-369.364
-368.74
-368.432
-368.61
-369.392
-370.856
-373.06
-376.019
-379.751
-384.265
-389.536
-395.513
-402.12
-409.249
-416.798
-424.662
-432.686
-440.717
-448.58
-456.098
-463.188
-469.808
-475.936
-481.588
-486.768
-491.517
-495.941
-500.171
-504.351
-508.631
-513.111
-517.934
-523.351
-529.487
-536.352
-543.806
-551.385
-558.642
-565.284
-570.852
-574.775
-576.69
-576.274
-573.545
-569.229
-563.874
-557.644
-550.844
-543.551
-535.493
-526.575
-516.131
-502.307
-483.409
-458.006
-424.402
-381.618
-329.096
-265.746
-191.184
-106.57
-13.348
86.353
189.254
292.531
393.084
486.319
567.474
632.263
676.396
696.797
691.759
659.234
598.102
509.264
396.671
267.343
128.334
-14.953
-162.027
-314.075
-466.289
-607.589
-719.579
-784.039
-795.109
-759.69
-695.445
-621.882
-550.431
-484.591
-422.074
-361.063
-303.44
-252.529
-211.875
-182.102
-160.676
-144.083
-128.321
-110.051
-87.258
-58.908
-24.764
14.541
57.649
102.814
147.907
190.737
229.773
264.181
293.59
318.081
337.983
353.699
365.895
375.419
382.882
388.703
393.153
396.34
398.437
399.68
400.233
400.23
399.82
399.131
398.31
397.536
396.926
396.565
396.508
396.729
397.178
397.795
398.499
399.208
399.819
400.195
400.217
399.789
398.827
397.281
395.114
392.271
388.715
384.42
379.368
373.597
367.179
360.185
352.718
344.892
336.833
328.709
320.672
312.843
305.336
298.237
291.616
285.552
280.114
275.36
271.357
268.157
265.785
264.257
263.559
263.644
264.454
265.891
267.855
270.251
272.972
275.916
279
282.137
285.247
288.246
291.013
293.405
295.291
296.559
297.13
296.957
296
294.248
291.718
288.473
284.619
280.278
275.558
270.569
265.422
260.251
255.245
250.627
246.608
243.37
241.07
239.848
239.85
241.213
244.012
248.24
253.819
260.636
268.577
277.517
287.31
297.767
308.636
319.646
330.537
341.071
351.013
360.113
368.097
374.673
379.621
382.802
384.142
383.61
381.182
376.856
370.673
362.718
353.124
342.034
329.575
315.864
301.043
285.281
268.785
251.795
234.497
217.029
199.504
181.999
164.591
147.341
130.271
113.371
96.628
80.031
63.588
47.323
31.241
15.338
-0.402
-16.014
-31.507
-46.869
-62.087
-77.131
-91.958
-106.519
-120.737
-134.525
-147.812
-160.532
-172.623
-184.046
-194.755
-204.725
-213.96
-222.448
-230.181
-237.153
-243.339
-248.731
-253.34
-257.168
-260.224
-262.513
-264.018
-264.741
-264.7
-263.899
-262.338
-259.981
-256.738
-252.543
-247.348
-241.105
-233.79
-225.36
-215.745
-204.91
-192.846
-179.554
-165.049
-149.313
-132.282
-113.906
-94.151
-73.023
-50.585
-26.883
-1.947
24.166
51.39
79.608
108.653
138.39
168.703
199.458
230.496
261.581
292.394
322.599
351.85
379.807
406.14
430.473
452.416
471.608
487.711
500.461
509.642
515.008
516.328
513.418
506.164
494.569
478.739
458.84
435.105
407.827
377.376
344.218
308.875
271.889
233.822
195.212
156.615
118.648
81.932
47.059
14.576
-15.052
-41.421
-64.17
-83.008
-97.726
-108.212
-114.459
-116.514
-114.48
-108.524
-98.847
-85.725
-69.521
-50.627
-29.461
-6.453
17.979
43.399
69.366
95.467
121.302
146.523
170.81
193.843
215.34
235.066
252.812
268.439
281.856
292.993
301.828
308.368
312.628
314.662
314.537
312.325
308.141
302.113
294.392
285.174
274.639
262.966
250.336
236.902
222.806
208.181
193.121
177.709
162.047
146.226
130.347
114.507
98.745
83.078
67.509
52.002
36.532
21.069
5.566
-9.996
-25.608
-41.239
-56.812
-72.249
-87.494
-102.482
-117.149
-131.41
-145.129
-158.153
-170.325
-181.461
-191.364
-199.825
-206.621
-211.566
-214.524
-215.39
-214.091
-210.56
-204.73
-196.564
-186.061
-173.264
-158.268
-141.194
-122.183
-101.434
-79.195
-55.761
-31.465
-6.619
18.483
43.54
68.232
92.212
115.13
136.645
156.445
174.242
189.768
202.765
212.999
220.289
224.502
225.575
223.484
218.2
209.713
198.051
183.291
165.579
145.095
122.05
96.674
69.22
39.975
9.279
-22.515
-55.049
-87.96
-120.929
-153.633
-185.708
-216.796
-246.535
-274.587
-300.667
-324.523
-345.921
-364.659
-380.563
-393.506
-403.449
-410.397
-414.391
-415.502
-413.786
-409.338
-402.329
-392.964
-381.485
-368.153
-353.212
-336.909
-319.519
-301.317
-282.574
-263.546
-244.427
-225.391
-206.608
-188.248
-170.503
-153.536
-137.451
-122.322
-108.205
-95.154
-83.229
-72.469
-62.877
-54.448
-47.172
-41.047
-36.079
-32.252
-29.51
-27.77
-26.925
-26.875
-27.547
-28.86
-30.721
-33.02
-35.635
-38.462
-41.418
-44.409
-47.331
-50.079
-52.571
-54.785
-56.76
-58.555
-60.241
-61.886
-63.553
-65.326
-67.302
-69.576
-72.228
-75.32
-78.891
-82.988
-87.659
-92.921
-98.733
-104.968
-111.417
-117.849
-124.026
-129.679
-134.531
-138.269
-140.564
-141.128
-139.703
-136.05
-129.95
-121.195
-109.6
-95.05
-77.525
-57.103
-33.952
-8.279
19.668
49.574
81.063
113.696
146.996
180.501
213.761
246.302
277.618
307.197
334.553
359.275
381.061
399.668
414.883
426.521
434.426
438.513
438.826
435.449
428.459
418.083
404.661
388.692
370.96
352.208
333.02
314.051
295.787
278.269
261.365
244.578
226.928
207.743
186.481
162.368
135.253
105.819
75.179
45.208
18.257
-3.871
-19.206
-25.356
-20.947
-5.808
19.225
51.988
89.642
129.329
167.076
197.712
216.622
220.218
205.608
170.928
115.457
39.08
-54.898
-159.263
-268.975
-380.228
-490.536
-601.102
-705.361
-790.367
-845.401
-858.612
-829.751
-771.582
-695.999
-616.568
-540.947
-467.614
-396.844
-329.637
-268.197
-217.059
-177.772
-149.248
-129.268
-114.543
-102.428
-90.664
-77.219
-61.114
-42.049
-20.361
2.828
26.261
48.68
68.543
84.759
96.91
104.862
108.924
109.693
107.709
103.685
98.503
92.788
86.959
81.321
75.968
70.992
66.527
62.596
59.181
56.264
53.791
51.724
50.025
48.601
47.33
46.063
44.647
42.967
40.925
38.431
35.422
31.846
27.685
22.985
17.811
12.259
6.457
0.537
-5.341
-10.981
-16.171
-20.693
-24.348
-26.972
-28.41
-28.5
-27.084
-24.027
-19.24
-12.703
-4.432
5.53
17.112
30.21
44.672
60.295
76.848
94.097
111.836
129.869
147.975
165.9
183.35
200.051
215.761
230.281
243.435
255.05
264.986
273.155
279.536
284.156
287.054
288.256
287.76
285.58
281.778
276.47
269.817
261.977
253.115
243.408
233.051
222.273
211.272
200.196
189.155
178.248
167.605
157.407
147.871
139.189
131.533
125.043
119.843
116.079
113.851
113.21
114.167
116.693
120.787
126.491
133.836
142.81
153.345
165.293
178.475
192.715
207.814
223.558
239.704
255.972
272.124
287.97
303.335
318.057
331.936
344.724
356.217
366.268
374.774
381.695
387.014
390.712
392.82
393.404
392.56
390.419
387.087
382.645
377.191
370.836
363.732
356.077
348.035
339.731
331.271
322.721
314.137
305.57
297.037
288.525
280.017
271.48
262.881
254.196
245.378
236.36
227.051
217.32
207.044
196.116
184.451
172.003
158.751
144.691
129.845
114.253
97.967
81.053
63.606
45.728
27.54
9.184
-9.169
-27.315
-45.02
-62.055
-78.226
-93.381
-107.404
-120.204
-131.707
-141.861
-150.637
-158.038
-164.099
-168.869
-172.411
-174.813
-176.198
-176.727
-176.604
-176.032
-175.177
-174.179
-173.148
-172.178
-171.358
-170.759
-170.424
-170.381
-170.639
-171.199
-172.064
-173.213
-174.603
-176.162
-177.788
-179.382
-180.876
-182.215
-183.365
-184.305
-185.01
-185.471
-185.702
-185.718
-185.542
-185.206
-184.741
-184.191
-183.624
-183.112
-182.737
-182.593
-182.748
-183.253
-184.152
-185.464
-187.211
-189.401
-192.019
-195.045
-198.444
-202.153
-206.096
-210.181
-214.276
-218.259
-222.007
-225.367
-228.209
-230.415
-231.868
-232.481
-232.18
-230.893
-228.571
-225.188
-220.736
-215.256
-208.818
-201.521
-193.515
-184.94
-175.941
-166.696
-157.377
-148.152
-139.201
-130.671
-122.69
-115.389
-108.888
-103.282
-98.647
-95.015
-92.378
-90.705
-89.923
-89.957
-90.729
-92.13
-94.046
-96.351
-98.901
-101.578
-104.283
-106.91
-109.352
-111.515
-113.316
-114.703
-115.651
-116.148
-116.195
-115.798
-114.965
-113.728
-112.129
-110.222
-108.076
-105.743
-103.261
-100.682
-98.056
-95.426
-92.83
-90.284
-87.787
-85.337
-82.935
-80.582
-78.266
-75.957
-73.609
-71.17
-68.583
-65.802
-62.785
-59.476
-55.823
-51.79
-47.354
-42.511
-37.275
-31.658
-25.665
-19.311
-12.636
-5.702
1.391
8.532
15.612
22.523
29.147
35.347
40.986
45.946
50.134
53.475
55.907
57.372
57.791
57.109
55.301
52.364
48.348
43.34
37.421
30.697
23.302
15.396
7.161
-1.219
-9.593
-17.817
-25.752
-33.271
-40.217
-46.448
-51.847
-56.297
-59.734
-62.147
-63.524
-63.895
-63.339
-61.967
-59.941
-57.469
-54.731
-51.903
-49.165
-46.661
-44.558
-43.024
-42.211
-42.288
-43.387
-45.589
-48.972
-53.584
-59.42
-66.433
-74.506
-83.437
-93.04
-103.131
-113.524
-124.085
-134.673
-145.136
-155.339
-165.135
-174.394
-183.017
-190.903
-197.947
-204.075
-209.254
-213.515
-216.974
-219.741
-221.916
-223.596
-224.841
-225.704
-226.248
-226.512
-226.53
-226.325
-225.918
-225.335
-224.629
-223.847
-223.008
-222.094
-221.041
-219.786
-218.281
-216.481
-214.359
-211.889
-209.047
-205.832
-202.261
-198.353
-194.128
-189.598
-184.759
-179.608
-174.156
-168.427
-162.462
-156.299
-149.977
-143.531
-136.996
-130.41
-123.808
-117.217
-110.656
-104.143
-97.694
-91.326
-85.06
-78.911
-72.891
-67.006
-61.249
-55.61
-50.08
-44.642
-39.288
-34.007
-28.788
-23.621
-18.494
-13.4
-8.344
-3.332
1.624
6.499
11.266
15.879
20.259
24.33
27.999
31.161
33.735
35.635
36.791
37.169
36.724
35.412
33.207
30.077
26.005
21.051
15.266
8.697
1.553
-5.878
-13.179
-19.734
-24.995
-28.543
-30.021
-29.185
-26.103
-21.022
-14.48
-7.396
-0.617
5.121
9.398
12.227
14.104
15.929
18.888
24.519
34.534
50.784
74.565
106.424
146.089
192.381
243.783
298.201
352.476
402.349
443.406
471.615
483.61
476.552
447.928
396.359
321.946
228.859
122.842
7.545
-111.364
-230.664
-347.121
-449.227
-528.525
-577.355
-588.386
-567.593
-522.017
-459.205
-390.301
-317.858
-244.404
-174.128
-108.809
-53.9
-13.293
13.295
26.765
29.637
25.349
16.078
4.271
-6.622
-14.572
-18.81
-19.088
-16.224
-11.373
-5.251
1.003
5.699
7.975
7.559
4.475
-0.615
-7.044
-14.34
-21.78
-28.549
-34.171
-38.371
-41.065
-42.408
-42.498
-41.397
-39.246
-36.203
-32.413
-28.011
-23.098
-17.758
-12.112
-6.312
-0.519
5.14
10.578
15.739
20.594
25.123
29.311
33.173
36.737
40.03
43.083
45.923
48.574
51.07
53.456
55.774
58.076
60.395
62.753
65.161
67.625
70.144
72.719
75.339
77.992
80.669
83.366
86.081
88.816
91.571
94.343
97.132
99.938
102.762
105.609
108.483
111.389
114.335
117.328
120.375
123.485
126.664
129.917
133.247
136.656
140.145
143.716
147.367
151.098
154.907
158.792
162.748
166.773
170.862
175.007
179.202
183.438
187.705
191.993
196.289
200.58
204.852
209.089
213.274
217.39
221.419
225.341
229.136
232.786
236.27
239.569
242.662
245.53
248.155
250.518
252.602
254.391
255.869
257.022
257.837
258.301
258.406
258.143
257.503
256.481
255.075
253.281
251.101
248.535
245.587
242.264
238.574
234.526
230.132
225.408
220.367
215.029
209.413
203.54
197.432
191.112
184.607
177.939
171.136
164.224
157.229
150.178
143.097
136.013
128.951
121.937
114.995
108.148
101.419
94.83
88.401
82.15
76.095
70.252
64.635
59.258
54.131
49.264
44.666
40.341
36.295
32.529
29.045
25.841
22.915
20.262
17.878
15.755
13.886
12.261
10.872
9.706
8.754
8.003
7.442
7.057
6.835
6.765
6.832
7.024
7.329
7.734
8.226
8.794
9.427
10.113
10.841
11.6
12.382
13.176
13.974
14.768
15.549
16.311
17.046
17.75
18.417
19.041
19.619
20.146
20.617
21.031
21.382
21.669
21.888
22.036
22.112
22.112
22.034
21.877
21.638
21.314
20.905
20.409
19.823
19.146
18.379
17.518
16.565
15.52
14.382
13.153
11.833
10.425
8.93
7.351
5.691
3.954
2.144
0.264
-1.679
-3.68
-5.732
-7.829
-9.963
-12.127
-14.311
-16.508
-18.707
-20.899
-23.075
-25.224
-27.336
-29.4
-31.407
-33.345
-35.205
-36.976
-38.65
-40.217
-41.669
-42.999
-44.199
-45.264
-46.189
-46.969
-47.601
-48.083
-48.414
-48.593
-48.622
-48.502
-48.237
-47.831
-47.29
-46.62
-45.829
-44.924
-43.916
-42.814
-41.629
-40.373
-39.058
-37.696
-36.301
-34.887
-33.467
-32.054
-30.662
-29.305
-27.996
-26.748
-25.572
-24.48
-23.483
-22.589
-21.809
-21.15
-20.62
-20.222
-19.964
-19.847
-19.874
-20.046
-20.364
-20.824
-21.426
-22.166
-23.037
-24.037
-25.156
-26.388
-27.725
-29.156
-30.673
-32.264
-33.918
-35.623
-37.368
-39.14
-40.926
-42.714
-44.493
-46.249
-47.971
-49.647
-51.268
-52.821
-54.298
-55.69
-56.988
-58.184
-59.272
-60.246
-61.101
-61.833
-62.439
-62.917
-63.266
-63.484
-63.572
-63.532
-63.365
-63.073
-62.66
-62.131
-61.489
-60.74
-59.89
-58.946
-57.914
-56.802
-55.618
-54.369
-53.063
-51.709
-50.313
-48.885
-47.433
-45.963
-44.485
-43.005
-41.531
-40.069
-38.627
-37.21
-35.824
-34.474
-33.165
-31.903
-30.69
-29.53
-28.428
-27.385
-26.405
-25.49
-24.641
-23.859
-23.146
-22.501
-21.924
-21.415
-20.973
-20.597
-20.286
-20.037
-19.85
-19.722
-19.651
-19.635
-19.672
-19.758
-19.891
-20.068
-20.288
-20.546
-20.842
-21.171
-21.533
-21.925
-22.345
-22.791
-23.262
-23.754
-24.267
-24.8
-25.351
-25.918
-26.502
-27.101
-27.716
-28.346
-28.991
-29.652
-30.329
-31.022
-31.732
-32.459
-33.203
-33.966
-34.746
-35.545
-36.363
-37.201
-38.059
-38.938
-39.838
-40.758
-41.699
-42.661
-43.643
-44.644
-45.664
-46.701
-47.756
-48.826
-49.912
-51.012
-52.124
-53.246
-54.378
-55.517
-56.659
-57.804
-58.949
-60.091
-61.229
-62.36
-63.484
-64.6
-65.706
-66.803
-67.89
-68.97
-70.041
-71.106
-72.166
-73.224
-74.283
-75.346
-76.416
-77.498
-78.597
-79.719
-80.872
-82.062
-83.296
-84.581
-85.926
-87.338
-88.824
-90.388
-92.035
-93.772
-95.604
-97.536
-99.574
-101.723
-103.99
-106.377
-108.886
-111.517
-114.264
-117.12
-120.075
-123.122
-126.256
-129.475
-132.775
-136.153
-139.605
-143.123
-146.697
-150.304
-153.914
-157.491
-161.003
-164.421
-167.726
-170.898
-173.914
-176.755
-179.389
-181.788
-183.925
-185.765
-187.274
-188.429
-189.227
-189.703
-189.913
-189.925
-189.792
-189.546
-189.231
-188.912
-188.667
-188.586
-188.768
-189.262
-190.156
-191.611
-193.637
-196.122
-198.801
-201.134
-202.643
-203.025
-201.875
-198.875
-194.186
-188.191
-181.685
-176.004
-172.03
-170.34
-171.671
-176.056
-182.628
-190.073
-196.204
-198.318
-194.561
-183.172
-162.046
-130.359
-88.397
-37.348
20.121
80.975
142.666
201.78
253.75
294.707
321.457
331.419
323.076
294.878
245.346
176.306
93.408
1.846
-94.915
-198.102
-311.848
-433.811
-552.87
-649.419
-703.828
-707.777
-667.103
-600.573
-527.974
-461.061
-402.816
-348.653
-295.033
-243.455
-198.069
-163.578
-141.541
-130.173
-126.421
-126.977
-129.305
-131.094
-130.209
-125.591
-117.044
-105.074
-90.882
-75.654
-60.49
-46.763
-35.547
-27.282
-22.062
-19.572
-19.221
-20.496
-22.851
-25.598
-28.218
-30.394
-31.899
-32.671
-32.714
-32.001
-30.558
-28.468
-25.785
-22.562
-18.864
-14.735
-10.237
-5.464
-0.493
4.598
9.714
14.774
19.693
24.383
28.791
32.89
36.663
40.113
43.259
46.123
48.742
51.167
53.441
55.61
57.714
59.791
61.881
64.029
66.274
68.661
71.225
73.989
76.975
80.197
83.664
87.384
91.359
95.583
100.055
104.776
109.744
114.961
120.428
126.141
132.097
138.29
144.715
151.366
158.236
165.315
172.596
180.068
187.72
195.542
203.521
211.641
219.886
228.237
236.673
245.176
253.722
262.288
270.852
279.388
287.871
296.278
304.583
312.76
320.782
328.624
336.259
343.66
350.802
357.659
364.203
370.409
376.252
381.708
386.753
391.364
395.521
399.203
402.391
405.069
407.22
408.83
409.889
410.384
410.309
409.656
408.422
406.605
404.205
401.225
397.671
393.549
388.87
383.644
377.886
371.612
364.839
357.588
349.881
341.743
333.198
324.276
315.005
305.416
295.541
285.413
275.065
264.533
253.85
243.053
232.177
221.257
210.328
199.425
188.581
177.832
167.207
156.74
146.461
136.396
126.575
117.021
107.759
98.811
90.195
81.93
74.032
66.513
59.386
52.659
46.34
40.432
34.939
29.861
25.196
20.941
17.09
13.637
10.571
7.884
5.563
3.596
1.967
0.663
-0.333
-1.039
-1.471
-1.648
-1.588
-1.31
-0.834
-0.179
0.638
1.596
2.677
3.863
5.136
6.479
7.875
9.309
10.765
12.23
13.69
15.132
16.547
17.923
19.251
20.522
21.73
22.867
23.929
24.909
25.805
26.612
27.329
27.954
28.485
28.922
29.266
29.517
29.676
29.745
29.727
29.625
29.441
29.18
28.845
28.441
27.972
27.443
26.858
26.224
25.544
24.824
24.069
23.283
22.472
21.641
20.794
19.935
19.07
18.202
17.335
16.474
15.621
14.781
13.957
13.152
12.369
11.611
10.88
10.179
9.508
8.871
8.267
7.697
7.162
6.662
6.196
5.763
5.362
4.991
4.649
4.333
4.041
3.77
3.516
3.277
3.049
2.829
2.612
2.396
2.175
1.947
1.707
1.453
1.18
0.884
0.563
0.213
-0.169
-0.586
-1.04
-1.534
-2.069
-2.646
-3.266
-3.929
-4.636
-5.385
-6.175
-7.004
-7.87
-8.771
-9.703
-10.663
-11.647
-12.65
-13.669
-14.698
-15.733
-16.768
-17.798
-18.818
-19.823
-20.809
-21.771
-22.705
-23.606
-24.471
-25.297
-26.08
-26.819
-27.512
-28.156
-28.753
-29.301
-29.803
-30.259
-30.673
-31.048
-31.388
-31.698
-31.983
-32.249
-32.504
-32.754
-33.008
-33.273
-33.559
-33.874
-34.228
-34.631
-35.09
-35.617
-36.219
-36.906
-37.685
-38.565
-39.554
-40.657
-41.882
-43.233
-44.716
-46.334
-48.091
-49.989
-52.028
-54.209
-56.531
-58.99
-61.584
-64.308
-67.156
-70.122
-73.199
-76.377
-79.648
-83.001
-86.424
-89.907
-93.436
-96.999
-100.582
-104.171
-107.751
-111.31
-114.832
-118.304
-121.711
-125.042
-128.281
-131.417
-134.436
-137.328
-140.081
-142.684
-145.127
-147.402
-149.5
-151.415
-153.139
-154.67
-156.001
-157.13
-158.055
-158.775
-159.29
-159.6
-159.707
-159.614
-159.325
-158.845
-158.178
-157.331
-156.31
-155.125
-153.781
-152.288
-150.655
-148.89
-147.003
-145.004
-142.901
-140.706
-138.427
-136.075
-133.66
-131.191
-128.677
-126.129
-123.555
-120.964
-118.363
-115.761
-113.166
-110.583
-108.02
-105.482
-102.976
-100.506
-98.077
-95.691
-93.353
-91.064
-88.827
-86.642
-84.511
-82.435
-80.412
-78.444
-76.53
-74.668
-72.859
-71.1
-69.39
-67.728
-66.111
-64.537
-63.004
-61.511
-60.056
-58.636
-57.252
-55.9
-54.58
-53.292
-52.034
-50.806
-49.61
-48.444
-47.311
-46.213
-45.152
-44.132
-43.156
-42.23
-41.359
-40.549
-39.806
-39.137
-38.549
-38.048
-37.641
-37.334
-37.131
-37.04
-37.064
-37.211
-37.485
-37.889
-38.429
-39.108
-39.931
-40.899
-42.013
-43.268
-44.657
-46.176
-47.818
-49.583
-51.465
-53.454
-55.541
-57.716
-59.965
-62.275
-64.62
-66.963
-69.264
-71.493
-73.617
-75.62
-77.481
-79.176
-80.681
-81.967
-83.005
-83.785
-84.289
-84.493
-84.391
-83.983
-83.299
-82.417
-81.412
-80.345
-79.274
-78.217
-77.207
-76.3
-75.548
-75.021
-74.797
-74.903
-75.412
-76.444
-77.967
-79.848
-81.816
-83.339
-83.956
-83.324
-80.964
-76.551
-70.172
-62.137
-53.184
-44.461
-36.754
-30.741
-27.323
-26.765
-28.579
-31.749
-34.325
-34.036
-29.269
-18.226
1.31
30.544
69.759
118.232
173.644
233.379
295.108
355.37
409.433
453.008
482.255
493.822
485.629
456.012
403.369
329.404
239.786
138.28
28.048
-88.824
-213.765
-339.363
-451.403
-537.122
-582.749
-586.732
-559.922
-512.672
-457.44
-400.877
-341.557
-280.886
-220.582
-163.807
-116.739
-82.014
-59.422
-47.771
-44.033
-45.189
-49.017
-52.891
-54.513
-52.883
-47.677
-39.174
-28.413
-16.525
-4.621
5.832
13.742
18.742
20.783
20.186
17.555
13.432
8.442
3.417
-1.036
-4.585
-7.024
-8.361
-8.654
-7.895
-6.147
-3.536
-0.158
3.88
8.474
13.56
19.048
24.804
30.699
36.583
42.305
47.768
52.904
57.665
62.03
65.989
69.54
72.706
75.523
78.031
80.274
82.29
84.119
85.81
87.419
89.006
90.632
92.341
94.164
96.126
98.243
100.53
102.999
105.652
108.487
111.504
114.709
118.104
121.699
125.497
129.499
133.704
138.112
142.724
147.542
152.567
157.798
163.234
168.876
174.723
180.772
187.02
193.461
200.084
206.88
213.836
220.939
228.174
235.526
242.976
250.507
258.099
265.735
273.393
281.05
288.685
296.274
303.791
311.211
318.509
325.656
332.625
339.388
345.916
352.179
358.149
363.796
369.09
374.004
378.509
382.576
386.178
389.29
391.887
393.945
395.442
396.358
396.673
396.372
395.439
393.861
391.629
388.733
385.168
380.929
376.016
370.43
364.176
357.26
349.691
341.483
332.65
323.21
313.184
302.596
291.472
279.84
267.732
255.18
242.221
228.893
215.234
201.285
187.09
172.691
158.133
143.461
128.721
113.957
99.217
84.545
69.987
55.586
41.385
27.428
13.754
0.402
-12.59
-25.186
-37.355
-49.063
-60.284
-70.991
-81.159
-90.769
-99.802
-108.243
-116.08
-123.303
-129.906
-135.886
-141.243
-145.978
-150.097
-153.607
-156.52
-158.847
-160.605
-161.81
-162.483
-162.643
-162.315
-161.523
-160.293
-158.652
-156.628
-154.25
-151.547
-148.549
-145.285
-141.786
-138.081
-134.201
-130.173
-126.028
-121.793
-117.495
-113.161
-108.816
-104.485
-100.189
-95.951
-91.79
-87.725
-83.773
-79.951
-76.271
-72.747
-69.39
-66.209
-63.212
-60.405
-57.795
-55.383
-53.172
-51.164
-49.358
-47.752
-46.344
-45.131
-44.109
-43.273
-42.618
-42.136
-41.822
-41.667
-41.664
-41.804
-42.079
-42.479
-42.996
-43.62
-44.343
-45.156
-46.048
-47.013
-48.04
-49.121
-50.248
-51.412
-52.606
-53.821
-55.051
-56.289
-57.527
-58.761
-59.984
-61.19
-62.375
-63.533
-64.66
-65.75
-66.801
-67.807
-68.766
-69.674
-70.529
-71.327
-72.067
-72.747
-73.365
-73.919
-74.408
-74.831
-75.188
-75.478
-75.701
-75.855
-75.943
-75.963
-75.918
-75.807
-75.632
-75.393
-75.094
-74.735
-74.317
-73.844
-73.317
-72.739
-72.112
-71.441
-70.727
-69.975
-69.188
-68.37
-67.525
-66.657
-65.77
-64.867
-63.953
-63.032
-62.108
-61.185
-60.266
-59.356
-58.458
-57.575
-56.713
-55.874
-55.06
-54.276
-53.524
-52.806
-52.126
-51.485
-50.885
-50.328
-49.816
-49.349
-48.929
-48.556
-48.23
-47.952
-47.719
-47.532
-47.39
-47.29
-47.231
-47.211
-47.229
-47.281
-47.366
-47.482
-47.625
-47.793
-47.984
-48.195
-48.423
-48.665
-48.918
-49.181
-49.449
-49.721
-49.993
-50.264
-50.531
-50.792
-51.044
-51.284
-51.512
-51.725
-51.921
-52.098
-52.257
-52.394
-52.511
-52.605
-52.678
-52.728
-52.755
-52.761
-52.744
-52.706
-52.646
-52.565
-52.463
-52.342
-52.202
-52.044
-51.868
-51.676
-51.468
-51.247
-51.012
-50.766
-50.509
-50.243
-49.969
-49.69
-49.406
-49.12
-48.833
-48.549
-48.267
-47.992
-47.723
-47.465
-47.217
-46.983
-46.763
-46.56
-46.375
-46.21
-46.067
-45.947
-45.853
-45.786
-45.747
-45.738
-45.76
-45.815
-45.902
-46.024
-46.181
-46.372
-46.598
-46.858
-47.153
-47.48
-47.839
-48.228
-48.645
-49.086
-49.549
-50.029
-50.524
-51.028
-51.537
-52.047
-52.552
-53.048
-53.529
-53.99
-54.425
-54.828
-55.194
-55.515
-55.786
-56.001
-56.153
-56.238
-56.249
-56.182
-56.031
-55.793
-55.463
-55.038
-54.516
-53.894
-53.172
-52.35
-51.429
-50.411
-49.298
-48.096
-46.81
-45.446
-44.012
-42.519
-40.975
-39.391
-37.778
-36.15
-34.517
-32.891
-31.283
-29.706
-28.17
-26.689
-25.276
-23.942
-22.704
-21.573
-20.561
-19.68
-18.938
-18.338
-17.883
-17.578
-17.426
-17.434
-17.611
-17.956
-18.474
-19.167
-20.03
-21.057
-22.225
-23.503
-24.862
-26.276
-27.721
-29.189
-30.663
-32.118
-33.536
-34.884
-36.131
-37.261
-38.245
-39.054
-39.676
-40.119
-40.428
-40.688
-40.968
-41.313
-41.747
-42.289
-42.992
-43.93
-45.181
-46.834
-48.934
-51.553
-54.861
-58.886
-63.498
-68.4
-73.001
-76.716
-79.218
-80.098
-78.89
-75.671
-70.794
-65.021
-59.914
-56.628
-55.711
-57.924
-63.633
-72.119
-82.229
-91.866
-97.657
-97.132
-88.476
-69.372
-38.463
4.291
58.262
121.101
188.899
258.447
326.333
387.758
438.479
474.923
493.653
492.646
470.9
427.043
362.269
281.616
189.827
90.314
-17.402
-136.731
-265.71
-393.589
-500.954
-568.579
-587.666
-562.827
-511.405
-451.468
-393.565
-340.877
-289.863
-237.954
-187.267
-142.052
-107.012
-84.109
-72.192
-68.504
-69.603
-72.714
-75.298
-75.173
-71.32
-63.389
-51.676
-37.311
-21.591
-5.815
8.439
20.036
28.517
33.697
35.811
35.383
32.914
29.038
24.526
19.917
15.568
11.749
8.559
6.064
4.34
3.365
3.074
3.428
4.377
5.872
7.874
10.299
13.048
16.022
19.123
22.258
25.323
28.212
30.824
33.086
34.957
36.423
37.479
38.133
38.41
38.347
38
37.425
36.675
35.803
34.859
33.895
32.971
32.142
31.469
30.996
30.762
30.798
31.129
31.78
32.766
34.1
35.786
37.83
40.24
43.027
46.196
49.754
53.702
58.041
62.769
67.882
73.376
79.246
85.481
92.072
99.007
106.27
113.849
121.723
129.871
138.27
146.892
155.709
164.693
173.811
183.031
192.318
201.638
210.957
220.238
229.446
238.546
247.5
256.272
264.827
273.128
281.142
288.833
296.167
303.114
309.64
315.718
321.318
326.416
330.986
335.008
338.463
341.332
343.602
345.261
346.3
346.712
346.494
345.644
344.164
342.058
339.333
335.999
332.069
327.555
322.475
316.848
310.695
304.039
296.904
289.317
281.307
272.903
264.136
255.04
245.648
235.993
226.112
216.039
205.81
195.461
185.028
174.544
164.045
153.565
143.135
132.788
122.554
112.462
102.54
92.813
83.305
74.04
65.037
56.316
47.894
39.785
32.003
24.558
17.461
10.718
4.336
-1.683
-7.337
-12.625
-17.549
-22.112
-26.32
-30.178
-33.694
-36.876
-39.735
-42.281
-44.525
-46.481
-48.162
-49.579
-50.748
-51.683
-52.397
-52.905
-53.222
-53.361
-53.336
-53.163
-52.853
-52.421
-51.88
-51.242
-50.519
-49.723
-48.866
-47.957
-47.008
-46.028
-45.026
-44.01
-42.989
-41.97
-40.96
-39.966
-38.993
-38.047
-37.134
-36.257
-35.42
-34.629
-33.886
-33.194
-32.556
-31.975
-31.453
-30.993
-30.595
-30.263
-29.996
-29.796
-29.664
-29.6
-29.605
-29.678
-29.819
-30.028
-30.303
-30.645
-31.051
-31.52
-32.051
-32.64
-33.287
-33.988
-34.741
-35.543
-36.39
-37.278
-38.206
-39.168
-40.161
-41.18
-42.223
-43.284
-44.36
-45.445
-46.537
-47.63
-48.72
-49.804
-50.877
-51.935
-52.975
-53.993
-54.987
-55.954
-56.892
-57.797
-58.669
-59.505
-60.305
-61.068
-61.793
-62.481
-63.132
-63.746
-64.327
-64.874
-65.39
-65.878
-66.34
-66.78
-67.199
-67.603
-67.993
-68.375
-68.75
-69.125
-69.501
-69.884
-70.276
-70.682
-71.104
-71.545
-72.009
-72.498
-73.014
-73.558
-74.132
-74.738
-75.374
-76.043
-76.743
-77.473
-78.232
-79.019
-79.831
-80.665
-81.518
-82.386
-83.265
-84.15
-85.037
-85.92
-86.794
-87.652
-88.49
-89.301
-90.079
-90.819
-91.513
-92.156
-92.743
-93.268
-93.725
-94.109
-94.417
-94.644
-94.786
-94.841
-94.804
-94.675
-94.452
-94.134
-93.719
-93.209
-92.603
-91.904
-91.112
-90.231
-89.263
-88.212
-87.083
-85.879
-84.606
-83.27
-81.876
-80.431
-78.941
-77.413
-75.854
-74.271
-72.67
-71.061
-69.448
-67.84
-66.243
-64.664
-63.11
-61.585
-60.097
-58.649
-57.248
-55.897
-54.601
-53.362
-52.185
-51.071
-50.023
-49.043
-48.131
-47.288
-46.515
-45.811
-45.176
-44.609
-44.108
-43.671
-43.296
-42.981
-42.722
-42.516
-42.361
-42.253
-42.187
-42.162
-42.172
-42.214
-42.285
-42.381
-42.498
-42.634
-42.785
-42.949
-43.123
-43.306
-43.495
-43.688
-43.885
-44.085
-44.286
-44.489
-44.693
-44.897
-45.102
-45.307
-45.514
-45.723
-45.935
-46.15
-46.369
-46.595
-46.827
-47.068
-47.318
-47.58
-47.854
-48.141
-48.443
-48.761
-49.096
-49.448
-49.818
-50.207
-50.613
-51.037
-51.478
-51.933
-52.402
-52.882
-53.369
-53.863
-54.358
-54.851
-55.338
-55.816
-56.279
-56.725
-57.147
-57.542
-57.904
-58.229
-58.513
-58.75
-58.936
-59.065
-59.133
-59.135
-59.066
-58.924
-58.703
-58.399
-58.01
-57.532
-56.963
-56.3
-55.543
-54.69
-53.742
-52.701
-51.568
-50.346
-49.041
-47.657
-46.201
-44.682
-43.107
-41.486
-39.828
-38.144
-36.444
-34.741
-33.045
-31.369
-29.723
-28.12
-26.573
-25.096
-23.701
-22.4
-21.206
-20.132
-19.189
-18.393
-17.755
-17.283
-16.985
-16.868
-16.94
-17.211
-17.687
-18.368
-19.25
-20.331
-21.602
-23.056
-24.676
-26.436
-28.307
-30.258
-32.257
-34.286
-36.319
-38.331
-40.296
-42.18
-43.96
-45.625
-47.16
-48.557
-49.817
-50.938
-51.946
-52.893
-53.836
-54.851
-56.008
-57.354
-58.937
-60.785
-62.933
-65.438
-68.345
-71.695
-75.536
-79.859
-84.682
-90.062
-95.883
-101.896
-107.741
-112.839
-116.7
-119.014
-119.355
-117.385
-113.2
-107.099
-99.756
-92.311
-85.505
-79.837
-76.011
-74.185
-73.783
-73.862
-72.71
-68.177
-58.842
-43.308
-19.805
12.447
53.316
101.882
155.925
212.897
270.656
326.216
375.402
414.512
440.382
450.341
442.649
415.583
367.473
299.918
218.414
127.956
31.877
-71.102
-185.303
-308.288
-428.663
-526.736
-582.629
-588.207
-549.802
-486.167
-417.021
-353.752
-298.743
-247.316
-195.941
-146.1
-102.02
-68.35
-46.69
-35.493
-31.929
-32.845
-35.781
-38.436
-38.716
-35.61
-28.895
-18.956
-6.851
6.332
19.529
31.321
40.624
47.002
50.352
50.975
49.435
46.217
41.869
37.129
32.549
28.479
25.183
22.708
21.042
20.218
20.199
20.907
22.29
24.282
26.809
29.827
33.263
37.022
41.027
45.175
49.358
53.473
57.416
61.108
64.512
67.602
70.369
72.816
74.955
76.817
78.448
79.893
81.196
82.397
83.532
84.648
85.793
87.015
88.364
89.877
91.577
93.488
95.624
97.998
100.618
103.485
106.594
109.943
113.533
117.365
121.441
125.761
130.32
135.116
140.143
145.397
150.873
156.564
162.464
168.564
174.856
181.331
187.979
194.789
201.747
208.835
216.038
223.336
230.71
238.14
245.604
253.081
260.548
267.982
275.361
282.66
289.857
296.926
303.844
310.584
317.122
323.433
329.492
335.274
340.753
345.906
350.709
355.137
359.17
362.786
365.965
368.687
370.936
372.695
373.949
374.687
374.898
374.571
373.7
372.28
370.307
367.781
364.701
361.072
356.897
352.184
346.941
341.181
334.915
328.159
320.93
313.248
305.134
296.611
287.704
278.441
268.85
258.961
248.805
238.415
227.826
217.07
206.183
195.202
184.16
173.096
162.043
151.038
140.115
129.309
118.653
108.179
97.919
87.903
78.158
68.713
59.592
50.819
42.415
34.4
26.792
19.606
12.856
6.552
0.703
-4.685
-9.608
-14.065
-18.057
-21.586
-24.66
-27.285
-29.472
-31.233
-32.583
-33.538
-34.116
-34.337
-34.222
-33.795
-33.079
-32.1
-30.883
-29.456
-27.846
-26.081
-24.19
-22.201
-20.142
-18.043
-15.93
-13.832
-11.776
-9.788
-7.893
-6.118
-4.484
-3.014
-1.729
-0.649
0.208
0.827
1.192
1.291
1.113
0.649
-0.108
-1.161
-2.515
-4.169
-6.121
-8.369
-10.907
-13.726
-16.819
-20.174
-23.777
-27.616
-31.675
-35.935
-40.381
-44.991
-49.746
-54.626
-59.607
-64.669
-69.788
-74.942
-80.108
-85.262
-90.381
-95.444
-100.428
-105.31
-110.072
-114.692
-119.151
-123.432
-127.52
-131.398
-135.054
-138.477
-141.656
-144.583
-147.253
-149.661
-151.803
-153.68
-155.292
-156.641
-157.733
-158.571
-159.165
-159.522
-159.652
-159.566
-159.277
-158.799
-158.143
-157.327
-156.365
-155.273
-154.068
-152.766
-151.384
-149.94
-148.45
-146.93
-145.397
-143.867
-142.353
-140.869
-139.429
-138.045
-136.726
-135.482
-134.321
-133.25
-132.275
-131.398
-130.624
-129.954
-129.386
-128.921
-128.555
-128.285
-128.106
-128.012
-127.997
-128.052
-128.17
-128.342
-128.557
-128.807
-129.08
-129.365
-129.652
-129.929
-130.185
-130.409
-130.59
-130.718
-130.782
-130.773
-130.683
-130.502
-130.224
-129.843
-129.352
-128.748
-128.025
-127.182
-126.216
-125.128
-123.917
-122.584
-121.132
-119.564
-117.884
-116.098
-114.21
-112.227
-110.156
-108.004
-105.78
-103.492
-101.149
-98.76
-96.336
-93.885
-91.418
-88.944
-86.474
-84.018
-81.585
-79.184
-76.824
-74.514
-72.262
-70.075
-67.962
-65.928
-63.98
-62.124
-60.364
-58.704
-57.148
-55.699
-54.358
-53.126
-52.004
-50.992
-50.088
-49.292
-48.601
-48.012
-47.522
-47.127
-46.823
-46.605
-46.467
-46.403
-46.408
-46.474
-46.596
-46.766
-46.978
-47.223
-47.497
-47.79
-48.097
-48.411
-48.724
-49.03
-49.322
-49.595
-49.842
-50.058
-50.238
-50.377
-50.472
-50.519
-50.515
-50.459
-50.348
-50.182
-49.959
-49.681
-49.348
-48.961
-48.524
-48.038
-47.506
-46.934
-46.325
-45.685
-45.018
-44.331
-43.631
-42.922
-42.213
-41.51
-40.82
-40.15
-39.509
-38.902
-38.339
-37.825
-37.369
-36.978
-36.657
-36.414
-36.253
-36.18
-36.199
-36.314
-36.529
-36.845
-37.264
-37.787
-38.414
-39.145
-39.976
-40.907
-41.933
-43.049
-44.251
-45.533
-46.887
-48.305
-49.78
-51.303
-52.863
-54.452
-56.059
-57.673
-59.282
-60.876
-62.444
-63.972
-65.45
-66.865
-68.206
-69.462
-70.622
-71.677
-72.616
-73.431
-74.113
-74.657
-75.055
-75.304
-75.398
-75.336
-75.114
-74.734
-74.196
-73.503
-72.658
-71.667
-70.536
-69.273
-67.889
-66.395
-64.802
-63.122
-61.369
-59.559
-57.704
-55.818
-53.915
-52.007
-50.11
-48.24
-46.412
-44.64
-42.941
-41.329
-39.818
-38.422
-37.149
-36.004
-34.991
-34.112
-33.374
-32.791
-32.369
-32.109
-32.016
-32.087
-32.319
-32.704
-33.217
-33.822
-34.488
-35.184
-35.888
-36.592
-37.278
-37.922
-38.499
-38.968
-39.303
-39.489
-39.501
-39.32
-38.942
-38.385
-37.713
-37.021
-36.388
-35.874
-35.514
-35.341
-35.42
-35.822
-36.639
-37.966
-39.854
-42.39
-45.695
-49.753
-54.405
-59.337
-64.029
-68.017
-70.978
-72.473
-72.127
-69.961
-66.315
-61.955
-57.879
-54.658
-52.623
-52.297
-53.998
-57.415
-61.51
-64.353
-63.928
-58.928
-48.228
-30.352
-3.827
32.226
77.411
129.823
187.281
247.759
308.7
366.432
416.176
452.916
472.618
472.584
450.554
404.923
335.43
244.044
135.235
14.929
-110.368
-233.929
-348.74
-448.03
-525.892
-578.699
-605.262
-605.853
-582.601
-539.344
-480.996
-413.41
-342.867
-274.369
-211.974
-159.532
-119.047
-90.763
-73.973
-66.637
-65.868
-69.35
-74.572
-78.442
-79.167
-76.056
-68.917
-58.555
-46.183
-32.638
-19.138
-7.375
1.741
7.843
10.848
11.284
9.745
6.613
2.508
-1.761
-5.682
-8.882
-11.12
-12.437
-12.853
-12.334
-10.951
-8.794
-5.932
-2.468
1.515
5.971
10.807
15.932
21.26
26.67
32.055
37.316
42.346
47.082
51.489
55.538
59.225
62.559
65.554
68.245
70.678
72.894
74.934
76.839
78.641
80.386
82.119
83.882
85.722
87.669
89.745
91.97
94.357
96.914
99.648
102.558
105.638
108.886
112.303
115.889
119.646
123.575
127.673
131.938
136.369
140.964
145.722
150.638
155.71
160.933
166.303
171.815
177.466
183.246
189.145
195.155
201.264
207.463
213.742
220.081
226.458
232.858
239.261
245.647
251.997
258.288
264.493
270.599
276.589
282.45
288.168
293.717
299.072
304.21
309.103
313.739
318.107
322.185
325.952
329.398
332.507
335.276
337.705
339.76
341.41
342.63
343.391
343.684
343.506
342.843
341.687
340.025
337.842
335.14
331.925
328.181
323.904
319.083
313.7
307.791
301.389
294.523
287.227
279.522
271.425
262.972
254.198
245.133
235.812
226.262
216.508
206.599
196.579
186.498
176.411
166.335
156.288
146.299
136.391
126.596
116.946
107.462
98.163
89.082
80.247
71.685
63.428
55.487
47.877
40.609
33.689
27.139
20.976
15.211
9.853
4.909
0.381
-3.725
-7.405
-10.668
-13.522
-15.976
-18.046
-19.74
-21.07
-22.051
-22.699
-23.033
-23.073
-22.838
-22.349
-21.629
-20.698
-19.581
-18.301
-16.88
-15.338
-13.698
-11.98
-10.205
-8.394
-6.564
-4.734
-2.921
-1.142
0.588
2.255
3.846
5.351
6.758
8.059
9.248
10.316
11.26
12.077
12.764
13.32
13.745
14.041
14.208
14.251
14.174
13.98
13.675
13.265
12.757
12.158
11.477
10.719
9.895
9.012
8.079
7.104
6.095
5.06
4.007
2.944
1.877
0.814
-0.239
-1.277
-2.293
-3.284
-4.243
-5.169
-6.057
-6.905
-7.711
-8.474
-9.192
-9.865
-10.492
-11.074
-11.611
-12.103
-12.554
-12.963
-13.333
-13.666
-13.965
-14.233
-14.473
-14.688
-14.881
-15.057
-15.217
-15.366
-15.508
-15.644
-15.78
-15.918
-16.061
-16.213
-16.377
-16.556
-16.751
-16.967
-17.204
-17.465
-17.753
-18.068
-18.413
-18.789
-19.198
-19.641
-20.12
-20.637
-21.191
-21.785
-22.42
-23.095
-23.813
-24.572
-25.374
-26.219
-27.107
-28.039
-29.013
-30.03
-31.09
-32.192
-33.335
-34.518
-35.741
-37
-38.296
-39.626
-40.988
-42.38
-43.8
-45.246
-46.715
-48.205
-49.711
-51.232
-52.764
-54.302
-55.843
-57.383
-58.918
-60.444
-61.957
-63.451
-64.924
-66.369
-67.784
-69.163
-70.501
-71.795
-73.039
-74.229
-75.362
-76.434
-77.44
-78.377
-79.244
-80.036
-80.752
-81.39
-81.948
-82.426
-82.821
-83.134
-83.364
-83.511
-83.576
-83.561
-83.466
-83.294
-83.045
-82.724
-82.332
-81.873
-81.348
-80.763
-80.119
-79.421
-78.674
-77.88
-77.044
-76.172
-75.267
-74.334
-73.378
-72.404
-71.415
-70.417
-69.413
-68.408
-67.406
-66.41
-65.425
-64.454
-63.502
-62.572
-61.668
-60.794
-59.953
-59.147
-58.38
-57.655
-56.975
-56.342
-55.759
-55.229
-54.755
-54.339
-53.985
-53.695
-53.472
-53.32
-53.239
-53.234
-53.307
-53.46
-53.697
-54.019
-54.43
-54.932
-55.528
-56.22
-57.009
-57.897
-58.885
-59.972
-61.158
-62.441
-63.818
-65.287
-66.845
-68.491
-70.22
-72.029
-73.916
-75.878
-77.911
-80.011
-82.171
-84.384
-86.642
-88.936
-91.256
-93.591
-95.929
-98.257
-100.562
-102.832
-105.056
-107.219
-109.305
-111.295
-113.173
-114.929
-116.556
-118.047
-119.403
-120.625
-121.723
-122.712
-123.607
-124.419
-125.157
-125.823
-126.419
-126.945
-127.399
-127.785
-128.097
-128.317
-128.424
-128.39
-128.182
-127.768
-127.108
-126.146
-124.839
-123.155
-121.068
-118.574
-115.68
-112.405
-108.778
-104.831
-100.61
-96.18
-91.623
-87.029
-82.484
-78.069
-73.865
-69.968
-66.463
-63.417
-60.884
-58.891
-57.445
-56.54
-56.153
-56.249
-56.783
-57.686
-58.867
-60.231
-61.693
-63.19
-64.678
-66.102
-67.415
-68.608
-69.67
-70.616
-71.464
-72.216
-72.896
-73.559
-74.262
-75.097
-76.176
-77.557
-79.324
-81.586
-84.265
-87.187
-90.064
-92.366
-93.675
-93.731
-92.135
-88.588
-83.224
-76.371
-68.768
-61.591
-55.529
-51.009
-48.673
-48.635
-50.324
-52.773
-54.151
-52.207
-45.504
-32.668
-11.949
17.467
55.623
101.855
154.08
209.825
267.065
322.898
373.188
414.216
442.56
454.909
448.988
422.985
375
306.171
221.732
125.018
18.602
-95.581
-219.232
-345.334
-459.168
-547.44
-595.717
-601.557
-575.959
-529.548
-474.94
-419.125
-360.403
-300.008
-239.768
-182.841
-135.65
-100.986
-78.617
-67.407
-64.28
-66.08
-70.46
-74.639
-76.213
-74.167
-68.207
-58.64
-46.544
-33.105
-19.499
-7.274
2.404
9.11
12.74
13.581
12.206
9.118
4.9
0.334
-4.005
-7.767
-10.692
-12.738
-13.926
-14.224
-13.68
-12.387
-10.409
-7.82
-4.703
-1.107
2.888
7.181
11.686
16.296
20.896
25.382
29.645
33.609
37.233
40.493
43.378
45.892
48.05
49.882
51.437
52.761
53.899
54.894
55.784
56.618
57.449
58.328
59.305
60.42
61.701
63.172
64.853
66.758
68.9
71.282
73.902
76.762
79.867
83.22
86.828
90.692
94.811
99.186
103.815
108.694
113.823
119.197
124.812
130.661
136.739
143.038
149.55
156.265
163.17
170.249
177.485
184.86
192.353
199.945
207.612
215.329
223.075
230.823
238.549
246.227
253.831
261.332
268.705
275.921
282.953
289.773
296.352
302.664
308.68
314.375
319.723
324.697
329.273
333.428
337.14
340.387
343.151
345.415
347.16
348.375
349.045
349.163
348.718
347.707
346.125
343.971
341.247
337.955
334.103
329.696
324.747
319.266
313.269
306.772
299.795
292.358
284.483
276.197
267.526
258.497
249.14
239.487
229.569
219.419
209.071
198.559
187.92
177.186
166.395
155.581
144.779
134.022
123.345
112.78
102.357
92.108
82.061
72.243
62.681
53.397
44.415
35.755
27.434
19.47
11.877
4.666
-2.153
-8.572
-14.585
-20.19
-25.383
-30.168
-34.545
-38.52
-42.099
-45.291
-48.104
-50.551
-52.644
-54.398
-55.827
-56.949
-57.779
-58.336
-58.638
-58.705
-58.554
-58.206
-57.68
-56.995
-56.171
-55.227
-54.181
-53.052
-51.858
-50.615
-49.34
-48.049
-46.756
-45.476
-44.22
-43.001
-41.83
-40.717
-39.671
-38.7
-37.81
-37.007
-36.297
-35.683
-35.168
-34.753
-34.441
-34.231
-34.123
-34.117
-34.211
-34.402
-34.689
-35.068
-35.536
-36.089
-36.722
-37.431
-38.212
-39.059
-39.968
-40.933
-41.949
-43.011
-44.114
-45.253
-46.422
-47.618
-48.836
-50.07
-51.317
-52.572
-53.832
-55.093
-56.352
-57.605
-58.851
-60.086
-61.307
-62.514
-63.702
-64.872
-66.02
-67.145
-68.245
-69.319
-70.365
-71.383
-72.371
-73.329
-74.254
-75.148
-76.008
-76.835
-77.627
-78.384
-79.105
-79.79
-80.439
-81.05
-81.625
-82.161
-82.66
-83.121
-83.543
-83.925
-84.268
-84.571
-84.834
-85.056
-85.237
-85.376
-85.474
-85.531
-85.546
-85.52
-85.453
-85.345
-85.196
-85.006
-84.776
-84.507
-84.198
-83.85
-83.463
-83.04
-82.579
-82.083
-81.551
-80.986
-80.387
-79.756
-79.094
-78.402
-77.682
-76.934
-76.16
-75.363
-74.543
-73.703
-72.845
-71.97
-71.081
-70.18
-69.269
-68.35
-67.426
-66.499
-65.573
-64.649
-63.731
-62.821
-61.924
-61.043
-60.18
-59.34
-58.525
-57.739
-56.986
-56.269
-55.592
-54.959
-54.373
-53.838
-53.357
-52.934
-52.572
-52.273
-52.042
-51.879
-51.788
-51.77
-51.828
-51.962
-52.174
-52.465
-52.835
-53.284
-53.811
-54.415
-55.095
-55.848
-56.671
-57.562
-58.516
-59.53
-60.597
-61.713
-62.871
-64.067
-65.291
-66.539
-67.8
-69.069
-70.335
-71.592
-72.829
-74.039
-75.212
-76.339
-77.412
-78.423
-79.362
-80.221
-80.992
-81.668
-82.242
-82.706
-83.054
-83.282
-83.384
-83.357
-83.197
-82.903
-82.473
-81.906
-81.204
-80.368
-79.401
-78.306
-77.088
-75.753
-74.307
-72.757
-71.113
-69.382
-67.576
-65.703
-63.777
-61.807
-59.807
-57.789
-55.765
-53.749
-51.753
-49.792
-47.878
-46.023
-44.241
-42.544
-40.944
-39.451
-38.077
-36.831
-35.721
-34.757
-33.943
-33.287
-32.792
-32.463
-32.3
-32.304
-32.476
-32.812
-33.309
-33.964
-34.77
-35.72
-36.806
-38.019
-39.349
-40.783
-42.311
-43.918
-45.591
-47.315
-49.076
-50.856
-52.641
-54.415
-56.161
-57.863
-59.506
-61.073
-62.55
-63.921
-65.173
-66.291
-67.263
-68.077
-68.724
-69.193
-69.477
-69.569
-69.463
-69.158
-68.649
-67.937
-67.021
-65.904
-64.591
-63.086
-61.396
-59.53
-57.498
-55.311
-52.984
-50.531
-47.966
-45.307
-42.571
-39.776
-36.941
-34.085
-31.226
-28.382
-25.571
-22.812
-20.125
-17.528
-15.038
-12.67
-10.442
-8.371
-6.472
-4.758
-3.235
-1.91
-0.786
0.131
0.831
1.31
1.57
1.614
1.446
1.073
0.502
-0.247
-1.144
-2.15
-3.23
-4.352
-5.495
-6.635
-7.748
-8.801
-9.755
-10.579
-11.255
-11.766
-12.094
-12.227
-12.163
-11.925
-11.58
-11.212
-10.901
-10.718
-10.71
-10.909
-11.361
-12.138
-13.326
-15.011
-17.268
-20.126
-23.616
-27.806
-32.621
-37.85
-43.146
-47.966
-51.776
-54.204
-54.934
-53.701
-50.671
-46.207
-40.754
-35.164
-30.174
-26.305
-24.02
-23.341
-23.392
-22.899
-20.62
-14.981
-4.665
11.742
35.895
68.559
109.22
156.371
208.229
262.888
318.319
371.27
417.181
451.988
472.59
476.702
462.272
427.2
369.756
292.13
200.811
99.902
-7.635
-120.886
-242.483
-364.42
-471.502
-550.821
-588.166
-582.993
-548.297
-495.341
-437.587
-382.649
-328.548
-275.58
-224.481
-177.066
-138.58
-111.453
-95.088
-87.347
-84.673
-84.109
-83.596
-81.639
-77.042
-69.154
-58.16
-44.953
-30.874
-17.331
-5.594
3.554
9.615
12.372
12.036
9.023
3.936
-2.479
-9.479
-16.519
-23.209
-29.261
-34.516
-38.853
-42.204
-44.589
-46.08
-46.736
-46.602
-45.73
-44.178
-42.033
-39.414
-36.441
-33.221
-29.872
-26.504
-23.224
-20.142
-17.336
-14.842
-12.68
-10.845
-9.318
-8.076
-7.079
-6.271
-5.597
-5
-4.424
-3.821
-3.135
-2.312
-1.296
-0.034
1.518
3.391
5.608
8.186
11.139
14.475
18.197
22.3
26.782
31.641
36.876
42.488
48.472
54.821
61.527
68.581
75.97
83.684
91.711
100.034
108.638
117.507
126.623
135.967
145.52
155.257
165.155
175.185
185.319
195.527
205.78
216.042
226.282
236.464
246.553
256.516
266.318
275.925
285.305
294.423
303.249
311.753
319.905
327.674
335.03
341.942
348.382
354.321
359.734
364.593
368.875
372.559
375.629
378.072
379.875
381.026
381.513
381.322
380.445
378.884
376.642
373.723
370.142
365.917
361.08
355.674
349.734
343.289
336.36
328.962
321.111
312.831
304.14
295.059
285.607
275.798
265.657
255.214
244.487
233.485
222.198
210.595
198.669
186.443
173.949
161.238
148.371
135.407
122.427
109.529
96.803
84.33
72.179
60.397
49.05
38.218
27.997
18.503
9.821
1.997
-4.935
-10.962
-16.093
-20.35
-23.79
-26.508
-28.582
-30.075
-31.041
-31.509
-31.531
-31.174
-30.514
-29.641
-28.629
-27.528
-26.389
-25.252
-24.142
-23.07
-22.021
-20.946
-19.821
-18.636
-17.392
-16.107
-14.792
-13.448
-12.078
-10.687
-9.281
-7.871
-6.465
-5.067
-3.692
-2.36
-1.105
0.029
1.01
1.818
2.436
2.859
3.081
3.097
2.91
2.529
1.96
1.211
0.289
-0.804
-2.058
-3.46
-4.996
-6.647
-8.395
-10.225
-12.122
-14.07
-16.054
-18.06
-20.076
-22.093
-24.1
-26.084
-28.034
-29.939
-31.785
-33.564
-35.266
-36.879
-38.397
-39.813
-41.12
-42.314
-43.393
-44.353
-45.194
-45.915
-46.517
-47
-47.368
-47.623
-47.767
-47.807
-47.746
-47.591
-47.346
-47.019
-46.616
-46.144
-45.611
-45.023
-44.388
-43.713
-43.004
-42.27
-41.517
-40.751
-39.981
-39.212
-38.451
-37.703
-36.974
-36.269
-35.592
-34.947
-34.338
-33.766
-33.234
-32.743
-32.295
-31.891
-31.529
-31.211
-30.935
-30.701
-30.508
-30.353
-30.235
-30.152
-30.102
-30.084
-30.093
-30.129
-30.189
-30.27
-30.37
-30.486
-30.616
-30.757
-30.907
-31.065
-31.227
-31.392
-31.558
-31.725
-31.89
-32.052
-32.211
-32.366
-32.517
-32.664
-32.807
-32.947
-33.085
-33.222
-33.358
-33.496
-33.637
-33.781
-33.931
-34.087
-34.252
-34.425
-34.609
-34.805
-35.013
-35.235
-35.472
-35.724
-35.992
-36.277
-36.58
-36.899
-37.236
-37.591
-37.962
-38.351
-38.756
-39.176
-39.61
-40.058
-40.518
-40.987
-41.464
-41.946
-42.43
-42.913
-43.392
-43.865
-44.326
-44.774
-45.205
-45.616
-46.003
-46.363
-46.693
-46.991
-47.252
-47.476
-47.658
-47.798
-47.892
-47.939
-47.938
-47.886
-47.784
-47.63
-47.424
-47.164
-46.852
-46.487
-46.07
-45.602
-45.084
-44.518
-43.907
-43.253
-42.559
-41.83
-41.069
-40.28
-39.468
-38.637
-37.793
-36.94
-36.083
-35.228
-34.381
-33.547
-32.73
-31.938
-31.174
-30.444
-29.754
-29.107
-28.509
-27.963
-27.475
-27.048
-26.685
-26.39
-26.167
-26.017
-25.944
-25.949
-26.033
-26.197
-26.443
-26.768
-27.173
-27.656
-28.216
-28.85
-29.556
-30.33
-31.17
-32.071
-33.029
-34.039
-35.096
-36.194
-37.328
-38.49
-39.675
-40.876
-42.086
-43.299
-44.507
-45.704
-46.883
-48.037
-49.159
-50.242
-51.279
-52.264
-53.191
-54.054
-54.848
-55.567
-56.208
-56.767
-57.24
-57.624
-57.919
-58.12
-58.228
-58.242
-58.161
-57.986
-57.718
-57.361
-56.916
-56.388
-55.781
-55.102
-54.356
-53.55
-52.693
-51.792
-50.857
-49.897
-48.922
-47.943
-46.971
-46.017
-45.093
-44.212
-43.387
-42.633
-41.96
-41.383
-40.913
-40.563
-40.343
-40.262
-40.326
-40.543
-40.919
-41.459
-42.169
-43.054
-44.117
-45.358
-46.779
-48.376
-50.141
-52.067
-54.137
-56.337
-58.655
-61.081
-63.607
-66.229
-68.933
-71.707
-74.535
-77.391
-80.25
-83.08
-85.839
-88.491
-91.009
-93.363
-95.536
-97.512
-99.264
-100.763
-101.974
-102.857
-103.383
-103.532
-103.294
-102.686
-101.739
-100.495
-99.015
-97.346
-95.53
-93.639
-91.73
-89.871
-88.152
-86.629
-85.41
-84.668
-84.44
-84.625
-85
-85.14
-84.647
-83.308
-80.76
-76.539
-70.627
-63.344
-55.421
-48.123
-42.382
-38.59
-37.328
-39.232
-44.094
-51.05
-58.356
-63.305
-63.805
-58.504
-45.651
-23.346
9.357
52.394
104.251
161.958
222.785
284.138
342.135
391.835
428.562
448.453
448.61
427.235
383.202
315.795
228.006
126.808
17.063
-97.256
-213.72
-333.677
-449.887
-548.473
-617.789
-644.989
-629.574
-584.372
-521.475
-454.758
-391.558
-330.27
-271.194
-215.224
-165.371
-126.847
-101.226
-87.537
-83.625
-85.896
-91.695
-98.772
-104.105
-105.865
-103.446
-96.758
-86.694
-74.542
-61.201
-47.886
-36.251
-27.203
-21.09
-17.951
-17.238
-18.353
-20.904
-24.283
-27.742
-30.799
-33.109
-34.491
-35.026
-34.757
-33.689
-31.896
-29.458
-26.449
-22.966
-19.086
-14.857
-10.357
-5.66
-0.854
3.945
8.631
13.097
17.269
21.11
24.597
27.722
30.487
32.905
35.003
36.832
38.436
39.859
41.141
42.318
43.435
44.547
45.704
46.961
48.357
49.919
51.672
53.636
55.826
58.254
60.923
63.832
66.98
70.371
74.008
77.896
82.035
86.423
91.058
95.936
101.053
106.406
111.989
117.795
123.818
130.05
136.483
143.107
149.911
156.882
164.005
171.262
178.635
186.105
193.651
201.251
208.883
216.525
224.152
231.741
239.268
246.709
254.038
261.231
268.264
275.11
281.746
288.147
294.289
300.147
305.698
310.918
315.786
320.279
324.378
328.062
331.313
334.113
336.449
338.304
339.668
340.528
340.875
340.704
340.007
338.782
337.028
334.746
331.938
328.61
324.769
320.423
315.583
310.262
304.475
298.238
291.569
284.487
277.015
269.174
260.99
252.487
243.694
234.637
225.346
215.851
206.182
196.37
186.446
176.441
166.387
156.315
146.256
136.239
126.295
116.452
106.737
97.177
87.798
78.622
69.672
60.968
52.53
44.374
36.516
28.97
21.747
14.858
8.311
2.113
-3.731
-9.218
-14.346
-19.116
-23.528
-27.587
-31.296
-34.663
-37.693
-40.396
-42.782
-44.861
-46.644
-48.145
-49.377
-50.353
-51.088
-51.597
-51.895
-51.996
-51.917
-51.671
-51.275
-50.743
-50.088
-49.326
-48.469
-47.531
-46.525
-45.464
-44.357
-43.218
-42.057
-40.883
-39.707
-38.538
-37.384
-36.253
-35.152
-34.089
-33.07
-32.099
-31.184
-30.327
-29.533
-28.806
-28.147
-27.56
-27.047
-26.607
-26.243
-25.955
-25.742
-25.604
-25.542
-25.553
-25.637
-25.791
-26.016
-26.307
-26.664
-27.084
-27.564
-28.101
-28.693
-29.337
-30.029
-30.766
-31.544
-32.359
-33.208
-34.086
-34.99
-35.915
-36.857
-37.811
-38.775
-39.743
-40.713
-41.68
-42.642
-43.595
-44.535
-45.462
-46.371
-47.26
-48.129
-48.975
-49.796
-50.593
-51.363
-52.107
-52.824
-53.514
-54.178
-54.814
-55.425
-56.01
-56.571
-57.108
-57.623
-58.117
-58.592
-59.05
-59.493
-59.922
-60.34
-60.749
-61.15
-61.546
-61.938
-62.328
-62.718
-63.108
-63.501
-63.896
-64.295
-64.698
-65.106
-65.517
-65.932
-66.351
-66.771
-67.193
-67.615
-68.034
-68.451
-68.863
-69.268
-69.666
-70.053
-70.429
-70.791
-71.137
-71.465
-71.774
-72.06
-72.324
-72.562
-72.773
-72.957
-73.111
-73.235
-73.328
-73.389
-73.418
-73.414
-73.378
-73.31
-73.209
-73.077
-72.915
-72.725
-72.506
-72.263
-71.995
-71.706
-71.398
-71.073
-70.733
-70.38
-70.018
-69.647
-69.271
-68.892
-68.511
-68.132
-67.756
-67.386
-67.022
-66.668
-66.323
-65.99
-65.668
-65.36
-65.064
-64.783
-64.516
-64.264
-64.027
-63.806
-63.601
-63.412
-63.238
-63.081
-62.938
-62.81
-62.695
-62.593
-62.503
-62.424
-62.354
-62.294
-62.242
-62.199
-62.164
-62.136
-62.115
-62.101
-62.093
-62.091
-62.096
-62.107
-62.124
-62.15
-62.184
-62.228
-62.283
-62.348
-62.425
-62.514
-62.614
-62.724
-62.844
-62.972
-63.105
-63.241
-63.381
-63.521
-63.66
-63.8
-63.937
-64.072
-64.204
-64.331
-64.451
-64.56
-64.652
-64.721
-64.763
-64.772
-64.743
-64.674
-64.558
-64.393
-64.177
-63.907
-63.577
-63.182
-62.709
-62.15
-61.504
-60.774
-59.966
-59.096
-58.175
-57.216
-56.238
-55.257
-54.277
-53.301
-52.316
-51.307
-50.271
-49.213
-48.147
-47.09
-46.041
-44.994
-43.944
-42.869
-41.753
-40.579
-39.306
-37.913
-36.406
-34.806
-33.168
-31.557
-30.016
-28.57
-27.236
-26.024
-24.961
-24.085
-23.421
-23.004
-22.872
-23.07
-23.667
-24.707
-26.183
-28.055
-30.244
-32.654
-35.222
-37.907
-40.663
-43.455
-46.233
-48.936
-51.528
-53.972
-56.216
-58.203
-59.859
-61.145
-62.099
-62.801
-63.356
-63.859
-64.355
-64.888
-65.524
-66.339
-67.433
-68.907
-70.808
-73.225
-76.297
-80.031
-84.319
-88.873
-93.165
-96.727
-99.226
-100.248
-99.479
-97.011
-93.284
-89.171
-85.81
-83.916
-83.85
-86.07
-90.749
-97.314
-104.431
-109.921
-111.449
-107.511
-97.083
-78.827
-51.558
-14.957
30.168
81.48
136.293
192.667
248.578
300.876
345.614
378.86
397.344
399.469
384.039
349.274
294.244
219.91
129.278
26.928
-81.925
-192.59
-299.836
-397.315
-479.122
-540.644
-579.379
-594.92
-588.122
-560.732
-516.021
-458.878
-394.929
-329.86
-268.301
-213.815
-169.165
-135.761
-113.634
-101.595
-97.312
-97.954
-100.952
-103.764
-104.266
-101.451
-95.033
-85.333
-73.401
-60.432
-47.594
-36.305
-27.609
-21.869
-19.151
-19.157
-21.291
-25.028
-29.775
-34.763
-39.446
-43.488
-46.63
-48.831
-50.103
-50.413
-49.812
-48.393
-46.212
-43.348
-39.886
-35.877
-31.412
-26.602
-21.541
-16.35
-11.145
-6.028
-1.109
3.535
7.864
11.85
15.485
18.779
21.741
24.402
26.805
28.992
31.005
32.888
34.675
36.414
38.15
39.931
41.802
43.798
45.943
48.256
50.752
53.439
56.325
59.412
62.695
66.174
69.851
73.727
77.807
82.092
86.581
91.274
96.167
101.26
106.55
112.035
117.711
123.575
129.622
135.847
142.245
148.809
155.529
162.395
169.392
176.507
183.726
191.031
198.404
205.827
213.281
220.746
228.2
235.623
242.992
250.284
257.477
264.545
271.464
278.209
284.754
291.076
297.147
302.943
308.438
313.609
318.431
322.882
326.938
330.58
333.786
336.537
338.817
340.608
341.895
342.666
342.909
342.615
341.776
340.387
338.444
335.948
332.898
329.299
325.155
320.474
315.266
309.543
303.319
296.61
289.435
281.814
273.771
265.328
256.513
247.353
237.876
228.114
218.096
207.856
197.427
186.841
176.132
165.335
154.484
143.613
132.756
121.946
111.215
100.596
90.118
79.812
69.706
59.825
50.196
40.842
31.784
23.042
14.634
6.577
-1.116
-8.432
-15.361
-21.895
-28.029
-33.759
-39.082
-43.999
-48.511
-52.621
-56.336
-59.662
-62.607
-65.18
-67.393
-69.257
-70.787
-71.996
-72.899
-73.513
-73.853
-73.937
-73.782
-73.406
-72.825
-72.058
-71.121
-70.032
-68.808
-67.465
-66.021
-64.489
-62.887
-61.228
-59.527
-57.797
-56.05
-54.298
-52.553
-50.823
-49.12
-47.45
-45.823
-44.245
-42.723
-41.262
-39.868
-38.545
-37.295
-36.122
-35.027
-34.012
-33.078
-32.225
-31.453
-30.761
-30.149
-29.614
-29.157
-28.774
-28.463
-28.223
-28.049
-27.939
-27.891
-27.9
-27.963
-28.077
-28.239
-28.445
-28.692
-28.977
-29.296
-29.646
-30.024
-30.426
-30.849
-31.292
-31.75
-32.221
-32.704
-33.196
-33.695
-34.199
-34.708
-35.219
-35.732
-36.246
-36.758
-37.27
-37.78
-38.287
-38.792
-39.295
-39.795
-40.293
-40.79
-41.286
-41.781
-42.277
-42.773
-43.271
-43.772
-44.276
-44.784
-45.298
-45.817
-46.344
-46.879
-47.423
-47.976
-48.54
-49.113
-49.696
-50.29
-50.893
-51.507
-52.13
-52.762
-53.402
-54.051
-54.706
-55.368
-56.036
-56.707
-57.381
-58.057
-58.733
-59.408
-60.079
-60.747
-61.408
-62.061
-62.706
-63.339
-63.959
-64.564
-65.153
-65.723
-66.273
-66.801
-67.305
-67.784
-68.236
-68.661
-69.057
-69.424
-69.759
-70.064
-70.336
-70.575
-70.781
-70.953
-71.09
-71.192
-71.259
-71.289
-71.284
-71.241
-71.162
-71.045
-70.889
-70.695
-70.462
-70.188
-69.875
-69.521
-69.126
-68.689
-68.212
-67.692
-67.131
-66.529
-65.884
-65.198
-64.469
-63.699
-62.886
-62.032
-61.136
-60.199
-59.221
-58.203
-57.144
-56.047
-54.912
-53.741
-52.534
-51.294
-50.023
-48.722
-47.396
-46.046
-44.676
-43.289
-41.889
-40.48
-39.067
-37.653
-36.243
-34.841
-33.452
-32.08
-30.73
-29.406
-28.113
-26.855
-25.636
-24.462
-23.336
-22.262
-21.244
-20.286
-19.391
-18.563
-17.803
-17.116
-16.502
-15.963
-15.501
-15.117
-14.811
-14.581
-14.427
-14.348
-14.34
-14.401
-14.526
-14.711
-14.952
-15.243
-15.578
-15.951
-16.356
-16.787
-17.235
-17.695
-18.159
-18.619
-19.068
-19.498
-19.902
-20.271
-20.599
-20.879
-21.104
-21.266
-21.36
-21.38
-21.32
-21.175
-20.942
-20.615
-20.194
-19.676
-19.061
-18.349
-17.543
-16.647
-15.665
-14.603
-13.469
-12.27
-11.015
-9.714
-8.376
-7.014
-5.637
-4.256
-2.883
-1.531
-0.213
1.056
2.265
3.4
4.447
5.392
6.219
6.915
7.47
7.875
8.121
8.199
8.094
7.798
7.306
6.615
5.725
4.642
3.369
1.918
0.314
-1.415
-3.234
-5.114
-7.034
-8.973
-10.91
-12.823
-14.679
-16.452
-18.128
-19.692
-21.136
-22.461
-23.67
-24.787
-25.872
-26.995
-28.248
-29.716
-31.459
-33.527
-35.944
-38.737
-41.965
-45.692
-49.976
-54.881
-60.412
-66.56
-73.363
-80.696
-88.275
-95.708
-102.377
-107.68
-111.226
-112.689
-111.806
-108.793
-104.082
-98.217
-92.21
-86.934
-82.962
-80.772
-80.359
-80.747
-80.557
-78.409
-72.45
-61.068
-42.73
-15.751
20.641
65.743
117.921
175.323
235.539
295.912
352.892
401.681
438.003
458.961
462.252
445.619
407.729
347.848
268.776
177.906
79.856
-22.812
-129.284
-242.695
-356.228
-454.962
-525.99
-554.809
-540.951
-498.773
-440.989
-382.44
-330.644
-281.843
-235
-189.81
-147.465
-113.439
-90.065
-76.427
-70.654
-69.517
-70.302
-71.224
-70.797
-67.746
-61.441
-52.034
-40.271
-27.285
-14.308
-2.555
7.158
14.271
18.501
20.016
19.178
16.48
12.574
8.154
3.711
-0.374
-3.817
-6.525
-8.427
-9.481
-9.747
-9.294
-8.171
-6.437
-4.138
-1.313
1.958
5.589
9.492
13.566
17.714
21.83
25.798
29.541
33.007
36.167
39.017
41.557
43.792
45.752
47.474
49.001
50.376
51.638
52.821
53.971
55.136
56.363
57.705
59.2
60.874
62.751
64.846
67.171
69.737
72.546
75.592
78.874
82.392
86.147
90.141
94.374
98.839
103.533
108.45
113.583
118.929
124.479
130.226
136.161
142.276
148.562
155.01
161.609
168.347
175.207
182.174
189.231
196.359
203.541
210.754
217.98
225.197
232.383
239.518
246.58
253.546
260.394
267.101
273.645
280.003
286.152
292.07
297.735
303.124
308.217
312.991
317.428
321.507
325.21
328.519
331.417
333.887
335.916
337.49
338.597
339.225
339.366
339.013
338.157
336.797
334.928
332.55
329.665
326.275
322.385
318
313.13
307.785
301.975
295.715
289.02
281.906
274.393
266.499
258.247
249.66
240.76
231.575
222.128
212.448
202.563
192.5
182.289
171.96
161.541
151.062
140.554
130.046
119.567
109.145
98.809
88.585
78.501
68.58
58.848
49.327
40.039
31.004
22.241
13.767
5.597
-2.253
-9.771
-16.947
-23.771
-30.235
-36.333
-42.061
-47.415
-52.394
-56.998
-61.23
-65.09
-68.585
-71.72
-74.502
-76.939
-79.041
-80.818
-82.28
-83.441
-84.313
-84.909
-85.244
-85.332
-85.187
-84.825
-84.261
-83.51
-82.589
-81.512
-80.295
-78.953
-77.503
-75.958
-74.333
-72.644
-70.904
-69.127
-67.327
-65.517
-63.709
-61.914
-60.145
-58.411
-56.723
-55.09
-53.52
-52.021
-50.6
-49.263
-48.017
-46.865
-45.813
-44.864
-44.021
-43.285
-42.66
-42.147
-41.745
-41.454
-41.276
-41.207
-41.247
-41.394
-41.644
-41.996
-42.444
-42.985
-43.614
-44.327
-45.118
-45.981
-46.912
-47.903
-48.949
-50.045
-51.183
-52.357
-53.563
-54.793
-56.042
-57.305
-58.576
-59.851
-61.123
-62.388
-63.642
-64.88
-66.098
-67.292
-68.457
-69.592
-70.692
-71.754
-72.776
-73.756
-74.692
-75.581
-76.424
-77.22
-77.967
-78.665
-79.315
-79.917
-80.472
-80.981
-81.445
-81.864
-82.24
-82.576
-82.87
-83.127
-83.345
-83.527
-83.674
-83.786
-83.866
-83.913
-83.93
-83.916
-83.874
-83.805
-83.71
-83.589
-83.445
-83.278
-83.09
-82.881
-82.654
-82.409
-82.148
-81.872
-81.582
-81.279
-80.966
-80.643
-80.311
-79.973
-79.63
-79.283
-78.935
-78.587
-78.241
-77.902
-77.57
-77.25
-76.945
-76.658
-76.394
-76.155
-75.946
-75.77
-75.632
-75.535
-75.483
-75.48
-75.528
-75.632
-75.794
-76.017
-76.305
-76.659
-77.081
-77.573
-78.135
-78.77
-79.476
-80.255
-81.106
-82.028
-83.019
-84.077
-85.202
-86.388
-87.633
-88.932
-90.28
-91.672
-93.102
-94.563
-96.048
-97.549
-99.059
-100.57
-102.073
-103.561
-105.024
-106.454
-107.843
-109.183
-110.465
-111.681
-112.823
-113.884
-114.858
-115.737
-116.515
-117.188
-117.75
-118.196
-118.523
-118.728
-118.807
-118.759
-118.583
-118.278
-117.845
-117.285
-116.6
-115.793
-114.867
-113.827
-112.677
-111.424
-110.073
-108.631
-107.104
-105.5
-103.826
-102.09
-100.3
-98.464
-96.591
-94.687
-92.761
-90.822
-88.876
-86.932
-84.997
-83.077
-81.181
-79.314
-77.482
-75.693
-73.952
-72.264
-70.634
-69.067
-67.566
-66.135
-64.777
-63.494
-62.288
-61.161
-60.113
-59.146
-58.26
-57.455
-56.731
-56.087
-55.522
-55.035
-54.626
-54.292
-54.032
-53.844
-53.725
-53.674
-53.689
-53.766
-53.903
-54.097
-54.343
-54.639
-54.98
-55.361
-55.778
-56.225
-56.698
-57.192
-57.7
-58.218
-58.739
-59.259
-59.77
-60.267
-60.745
-61.196
-61.614
-61.992
-62.326
-62.607
-62.831
-62.991
-63.081
-63.096
-63.03
-62.879
-62.638
-62.303
-61.872
-61.34
-60.707
-59.973
-59.136
-58.198
-57.162
-56.033
-54.816
-53.517
-52.143
-50.702
-49.204
-47.656
-46.067
-44.446
-42.802
-41.145
-39.486
-37.837
-36.211
-34.622
-33.083
-31.606
-30.205
-28.891
-27.669
-26.545
-25.524
-24.616
-23.835
-23.194
-22.701
-22.364
-22.188
-22.174
-22.322
-22.614
-23.024
-23.526
-24.094
-24.713
-25.377
-26.076
-26.793
-27.505
-28.177
-28.78
-29.298
-29.712
-30
-30.149
-30.171
-30.122
-30.08
-30.129
-30.32
-30.669
-31.207
-31.983
-33.06
-34.537
-36.501
-39.004
-42.14
-46.027
-50.657
-55.906
-61.47
-66.825
-71.532
-75.267
-77.633
-78.329
-77.4
-75.21
-72.548
-70.432
-69.451
-69.858
-71.983
-75.927
-81.157
-86.445
-89.798
-89.129
-83.114
-70.954
-51.663
-24.243
11.533
54.873
103.885
156.382
210.731
265.432
318.058
365.002
402.864
428.961
440.914
436.421
413.201
369.026
304.991
226.651
137.118
38.263
-69.305
-188.714
-312.324
-424.136
-509.531
-552.256
-550.632
-517.76
-465.644
-408.708
-354.347
-299.591
-244.978
-191.696
-142.08
-102.432
-75.452
-60.405
-55.491
-57.225
-61.996
-67.156
-70.659
-70.697
-66.435
-58.028
-46.163
-32.1
-17.522
-3.987
7.483
16.115
21.606
24.141
24.022
21.775
18.161
13.919
9.56
5.467
1.859
-1.176
-3.509
-5.069
-5.876
-5.974
-5.41
-4.214
-2.394
0.031
2.998
6.422
10.208
14.268
18.535
22.926
27.356
31.739
35.979
40.015
43.816
47.359
50.639
53.662
56.438
58.996
61.378
63.621
65.767
67.851
69.898
71.942
74.018
76.161
78.411
80.798
83.339
86.052
88.949
92.035
95.317
98.793
102.457
106.305
110.335
114.546
118.941
123.518
128.276
133.211
138.32
143.599
149.044
154.65
160.413
166.326
172.383
178.579
184.907
191.359
197.926
204.596
211.356
218.193
225.091
232.036
239.009
245.994
252.972
259.925
266.834
273.68
280.441
287.097
293.627
300.008
306.22
312.239
318.041
323.606
328.908
333.926
338.636
343.018
347.049
350.709
353.978
356.838
359.27
361.259
362.788
363.844
364.415
364.489
364.059
363.117
361.659
359.68
357.18
354.16
350.624
346.575
342.021
336.971
331.437
325.43
318.967
312.066
304.744
297.024
288.93
280.485
271.716
262.651
253.319
243.75
233.975
224.025
213.932
203.729
193.449
183.123
172.785
162.467
152.199
142.014
131.941
122.009
112.246
102.678
93.33
84.228
75.391
66.843
58.6
50.681
43.101
35.874
29.009
22.518
16.407
10.681
5.344
0.397
-4.161
-8.332
-12.119
-15.53
-18.569
-21.248
-23.574
-25.56
-27.217
-28.56
-29.602
-30.359
-30.845
-31.076
-31.071
-30.844
-30.414
-29.797
-29.011
-28.073
-27.001
-25.812
-24.522
-23.15
-21.71
-20.219
-18.693
-17.144
-15.588
-14.038
-12.507
-11.005
-9.544
-8.134
-6.785
-5.505
-4.302
-3.183
-2.154
-1.222
-0.39
0.337
0.956
1.464
1.858
2.137
2.3
2.345
2.274
2.086
1.783
1.367
0.841
0.206
-0.533
-1.372
-2.307
-3.333
-4.445
-5.637
-6.904
-8.24
-9.638
-11.092
-12.594
-14.139
-15.72
-17.329
-18.96
-20.606
-22.261
-23.916
-25.567
-27.206
-28.826
-30.422
-31.986
-33.514
-34.998
-36.433
-37.815
-39.137
-40.396
-41.587
-42.708
-43.755
-44.725
-45.617
-46.43
-47.162
-47.814
-48.386
-48.879
-49.294
-49.633
-49.898
-50.094
-50.222
-50.287
-50.292
-50.242
-50.141
-49.994
-49.806
-49.582
-49.328
-49.049
-48.751
-48.439
-48.119
-47.798
-47.481
-47.173
-46.88
-46.608
-46.361
-46.144
-45.96
-45.815
-45.71
-45.65
-45.636
-45.67
-45.754
-45.888
-46.072
-46.308
-46.593
-46.927
-47.308
-47.735
-48.205
-48.716
-49.266
-49.851
-50.468
-51.113
-51.785
-52.478
-53.189
-53.915
-54.651
-55.393
-56.138
-56.881
-57.619
-58.349
-59.066
-59.768
-60.452
-61.117
-61.759
-62.377
-62.97
-63.537
-64.078
-64.594
-65.084
-65.549
-65.992
-66.413
-66.816
-67.202
-67.575
-67.936
-68.29
-68.639
-68.986
-69.335
-69.689
-70.052
-70.425
-70.814
-71.221
-71.649
-72.101
-72.581
-73.09
-73.631
-74.206
-74.816
-75.463
-76.148
-76.871
-77.632
-78.431
-79.266
-80.137
-81.04
-81.975
-82.937
-83.923
-84.929
-85.952
-86.985
-88.026
-89.068
-90.106
-91.135
-92.151
-93.147
-94.118
-95.06
-95.967
-96.835
-97.658
-98.433
-99.156
-99.823
-100.431
-100.977
-101.459
-101.875
-102.224
-102.505
-102.719
-102.865
-102.944
-102.959
-102.913
-102.807
-102.647
-102.436
-102.179
-101.883
-101.553
-101.195
-100.817
-100.426
-100.029
-99.633
-99.246
-98.877
-98.531
-98.217
-97.942
-97.713
-97.535
-97.415
-97.358
-97.369
-97.452
-97.61
-97.846
-98.161
-98.557
-99.033
-99.59
-100.225
-100.935
-101.717
-102.566
-103.476
-104.44
-105.451
-106.502
-107.582
-108.682
-109.793
-110.902
-111.998
-113.07
-114.106
-115.093
-116.018
-116.87
-117.635
-118.302
-118.859
-119.296
-119.602
-119.768
-119.784
-119.643
-119.338
-118.863
-118.214
-117.387
-116.382
-115.197
-113.834
-112.297
-110.589
-108.719
-106.694
-104.524
-102.218
-99.789
-97.25
-94.616
-91.902
-89.122
-86.291
-83.428
-80.549
-77.673
-74.817
-72.001
-69.241
-66.555
-63.964
-61.485
-59.134
-56.923
-54.863
-52.962
-51.233
-49.689
-48.339
-47.187
-46.235
-45.482
-44.928
-44.569
-44.392
-44.372
-44.477
-44.679
-44.953
-45.284
-45.656
-46.049
-46.436
-46.787
-47.083
-47.307
-47.447
-47.491
-47.426
-47.253
-46.996
-46.716
-46.494
-46.403
-46.501
-46.827
-47.399
-48.25
-49.442
-51.031
-53.081
-55.65
-58.751
-62.435
-66.797
-71.769
-77.151
-82.587
-87.48
-91.319
-93.76
-94.348
-92.748
-89.062
-83.587
-77.037
-70.612
-65.13
-61.243
-59.798
-60.992
-64.226
-68.458
-71.767
-71.824
-66.951
-55.212
-34.344
-3.196
38.406
89.43
147.306
209.271
272.692
333.584
386.997
428.314
453.237
459.098
444.662
408.47
349.884
270.449
173.662
64.517
-51.091
-167.933
-280.617
-382.646
-468.152
-532.62
-573.587
-590.795
-585.047
-557.891
-512.631
-454.194
-388.041
-319.909
-254.345
-194.766
-144.576
-105.881
-78.94
-62.866
-55.661
-54.518
-57.198
-61.444
-64.352
-64.177
-60.312
-52.653
-42.01
-29.566
-16.111
-2.761
8.888
17.995
24.256
27.623
28.622
27.819
25.552
22.396
19.106
16.156
13.879
12.485
11.911
12.127
13.156
14.925
17.341
20.331
23.791
27.643
31.849
36.333
41.015
45.82
50.636
55.368
59.93
64.229
68.208
71.839
75.102
77.999
80.549
82.774
84.714
86.42
87.933
89.301
90.564
91.759
92.934
94.136
95.411
96.806
98.358
100.093
102.034
104.199
106.599
109.243
112.135
115.272
118.656
122.288
126.172
130.313
134.712
139.368
144.281
149.448
154.865
160.529
166.436
172.578
178.949
185.541
192.343
199.349
206.544
213.916
221.448
229.122
236.92
244.822
252.806
260.85
268.93
277.023
285.105
293.15
301.135
309.033
316.819
324.466
331.948
339.239
346.312
353.139
359.695
365.953
371.885
377.468
382.675
387.484
391.87
395.813
399.293
402.29
404.788
406.77
408.223
409.135
409.496
409.296
408.531
407.196
405.29
402.812
399.767
396.158
391.991
387.277
382.026
376.25
369.965
363.187
355.936
348.232
340.099
331.561
322.645
313.379
303.792
293.914
283.778
273.415
262.859
252.143
241.3
230.365
219.37
208.351
197.339
186.367
175.468
164.671
154.008
143.505
133.19
123.089
113.226
103.624
94.302
85.281
76.578
68.208
60.185
52.52
45.224
38.304
31.765
25.612
19.845
14.464
9.469
4.853
0.613
-3.258
-6.769
-9.93
-12.752
-15.246
-17.426
-19.307
-20.903
-22.231
-23.306
-24.145
-24.766
-25.186
-25.422
-25.492
-25.413
-25.203
-24.879
-24.458
-23.956
-23.39
-22.775
-22.128
-21.462
-20.791
-20.129
-19.488
-18.879
-18.313
-17.8
-17.349
-16.969
-16.668
-16.451
-16.326
-16.297
-16.368
-16.543
-16.824
-17.212
-17.709
-18.315
-19.03
-19.852
-20.78
-21.811
-22.943
-24.173
-25.496
-26.908
-28.404
-29.979
-31.626
-33.341
-35.116
-36.944
-38.821
-40.738
-42.688
-44.666
-46.664
-48.674
-50.69
-52.705
-54.712
-56.704
-58.674
-60.617
-62.526
-64.396
-66.222
-67.998
-69.72
-71.385
-72.988
-74.525
-75.994
-77.393
-78.718
-79.969
-81.145
-82.244
-83.268
-84.215
-85.088
-85.888
-86.616
-87.275
-87.866
-88.392
-88.857
-89.263
-89.615
-89.915
-90.169
-90.381
-90.554
-90.695
-90.806
-90.894
-90.961
-91.014
-91.055
-91.089
-91.121
-91.154
-91.192
-91.239
-91.298
-91.372
-91.463
-91.575
-91.708
-91.865
-92.047
-92.254
-92.486
-92.743
-93.026
-93.332
-93.662
-94.013
-94.384
-94.772
-95.176
-95.591
-96.016
-96.446
-96.878
-97.308
-97.733
-98.149
-98.551
-98.937
-99.301
-99.641
-99.952
-100.23
-100.473
-100.676
-100.836
-100.95
-101.016
-101.031
-100.993
-100.902
-100.755
-100.552
-100.294
-99.98
-99.611
-99.189
-98.714
-98.19
-97.617
-97.001
-96.343
-95.647
-94.919
-94.162
-93.382
-92.582
-91.769
-90.947
-90.122
-89.299
-88.483
-87.681
-86.896
-86.135
-85.403
-84.705
-84.044
-83.427
-82.856
-82.336
-81.869
-81.458
-81.106
-80.813
-80.582
-80.412
-80.305
-80.259
-80.273
-80.346
-80.476
-80.66
-80.895
-81.177
-81.502
-81.865
-82.261
-82.686
-83.134
-83.599
-84.076
-84.559
-85.044
-85.523
-85.992
-86.444
-86.876
-87.282
-87.657
-87.996
-88.297
-88.554
-88.766
-88.929
-89.041
-89.1
-89.105
-89.056
-88.951
-88.791
-88.577
-88.308
-87.988
-87.617
-87.199
-86.735
-86.228
-85.683
-85.102
-84.489
-83.848
-83.182
-82.495
-81.791
-81.072
-80.343
-79.605
-78.86
-78.112
-77.361
-76.609
-75.857
-75.106
-74.355
-73.604
-72.852
-72.099
-71.342
-70.58
-69.81
-69.03
-68.237
-67.428
-66.602
-65.755
-64.883
-63.985
-63.057
-62.097
-61.102
-60.07
-58.998
-57.885
-56.731
-55.535
-54.297
-53.017
-51.7
-50.349
-48.969
-47.567
-46.15
-44.726
-43.305
-41.896
-40.507
-39.148
-37.827
-36.552
-35.334
-34.184
-33.114
-32.138
-31.268
-30.516
-29.896
-29.419
-29.092
-28.92
-28.908
-29.062
-29.393
-29.919
-30.653
-31.61
-32.798
-34.228
-35.9
-37.807
-39.93
-42.236
-44.693
-47.272
-49.948
-52.708
-55.532
-58.393
-61.258
-64.084
-66.835
-69.481
-71.997
-74.355
-76.557
-78.642
-80.674
-82.759
-84.99
-87.426
-90.139
-93.201
-96.689
-100.721
-105.406
-110.816
-117.059
-124.258
-132.4
-141.379
-150.926
-160.51
-169.648
-177.912
-184.756
-189.776
-192.972
-194.594
-195.308
-196.162
-197.794
-200.64
-205.327
-211.922
-219.726
-227.5
-233.11
-234.104
-228.882
-215.997
-193.639
-160.885
-117.699
-64.967
-5.192
58.766
124.691
189.734
249.858
301.269
340.455
364.299
371.091
359.21
326.336
273.095
204.244
124.468
38.443
-54.111
-159.756
-278.766
-404.329
-518.607
-595.906
-622.384
-594.964
-526.791
-441.944
-354.972
-278.579
-216.16
-163.767
-124.672
-96.039
-75.801
-64.331
-56.473
-52.677
-53.484
-56.775
-62.119
-66.125
-66.046
-61.837
-53.64
-42.781
-30.882
-18.854
-7.909
0.869
7.084
10.641
11.832
11.253
9.448
6.978
4.501
2.498
1.221
0.802
1.213
2.383
4.286
6.846
9.951
13.512
17.446
21.68
26.153
30.776
35.427
39.988
44.36
48.464
52.248
55.678
58.727
61.383
63.653
65.553
67.103
68.334
69.274
69.955
70.421
70.718
70.902
71.028
71.145
71.292
71.5
71.793
72.193
72.718
73.381
74.19
75.158
76.296
77.619
79.139
80.871
82.822
85.003
87.419
90.077
92.986
96.153
99.584
103.286
107.263
111.521
116.062
120.887
125.995
131.381
137.039
142.959
149.132
155.547
162.188
169.041
176.091
183.318
190.704
198.229
205.87
213.605
221.408
229.253
237.115
244.964
252.773
260.511
268.15
275.659
283.007
290.164
297.1
303.783
310.185
316.276
322.026
327.409
332.396
336.964
341.088
344.745
347.914
350.576
352.713
354.31
355.354
355.833
355.738
355.062
353.801
351.952
349.515
346.494
342.894
338.721
333.988
328.705
322.888
316.556
309.727
302.422
294.667
286.487
277.909
268.963
259.679
250.088
240.224
230.121
219.812
209.334
198.72
188.007
177.231
166.425
155.625
144.866
134.179
123.597
113.152
102.872
92.787
82.922
73.302
63.951
54.89
46.137
37.711
29.626
21.894
14.527
7.533
0.918
-5.314
-11.159
-16.618
-21.693
-26.386
-30.702
-34.648
-38.233
-41.464
-44.354
-46.914
-49.157
-51.096
-52.747
-54.124
-55.243
-56.119
-56.769
-57.209
-57.455
-57.523
-57.427
-57.184
-56.809
-56.314
-55.715
-55.023
-54.251
-53.41
-52.509
-51.56
-50.57
-49.548
-48.499
-47.432
-46.351
-45.261
-44.168
-43.075
-41.984
-40.9
-39.825
-38.759
-37.706
-36.665
-35.639
-34.627
-33.631
-32.65
-31.687
-30.741
-29.813
-28.905
-28.016
-27.148
-26.302
-25.48
-24.684
-23.916
-23.179
-22.475
-21.808
-21.182
-20.6
-20.067
-19.586
-19.162
-18.8
-18.502
-18.274
-18.118
-18.04
-18.042
-18.127
-18.299
-18.56
-18.913
-19.359
-19.899
-20.535
-21.267
-22.094
-23.017
-24.033
-25.141
-26.339
-27.624
-28.993
-30.441
-31.965
-33.558
-35.214
-36.928
-38.692
-40.497
-42.337
-44.201
-46.081
-47.968
-49.852
-51.724
-53.573
-55.391
-57.168
-58.895
-60.562
-62.162
-63.685
-65.124
-66.471
-67.719
-68.863
-69.895
-70.812
-71.607
-72.278
-72.821
-73.232
-73.51
-73.653
-73.662
-73.535
-73.274
-72.88
-72.357
-71.708
-70.938
-70.052
-69.055
-67.954
-66.757
-65.47
-64.103
-62.664
-61.16
-59.602
-57.999
-56.36
-54.693
-53.009
-51.316
-49.623
-47.938
-46.27
-44.627
-43.017
-41.446
-39.922
-38.451
-37.041
-35.695
-34.42
-33.22
-32.099
-31.061
-30.108
-29.242
-28.464
-27.774
-27.173
-26.66
-26.233
-25.89
-25.628
-25.444
-25.335
-25.296
-25.325
-25.415
-25.563
-25.763
-26.012
-26.304
-26.635
-27.001
-27.397
-27.819
-28.262
-28.723
-29.198
-29.684
-30.176
-30.672
-31.169
-31.664
-32.156
-32.641
-33.119
-33.589
-34.05
-34.502
-34.945
-35.379
-35.805
-36.224
-36.638
-37.048
-37.455
-37.862
-38.271
-38.683
-39.099
-39.522
-39.951
-40.39
-40.837
-41.293
-41.76
-42.236
-42.722
-43.217
-43.72
-44.23
-44.747
-45.268
-45.792
-46.317
-46.841
-47.36
-47.872
-48.375
-48.865
-49.339
-49.794
-50.224
-50.628
-51.001
-51.339
-51.639
-51.897
-52.11
-52.275
-52.388
-52.449
-52.456
-52.407
-52.302
-52.14
-51.922
-51.649
-51.322
-50.942
-50.513
-50.036
-49.516
-48.955
-48.358
-47.728
-47.072
-46.392
-45.695
-44.986
-44.269
-43.552
-42.84
-42.138
-41.453
-40.792
-40.159
-39.561
-39.003
-38.49
-38.028
-37.62
-37.27
-36.98
-36.753
-36.59
-36.493
-36.462
-36.495
-36.592
-36.751
-36.969
-37.242
-37.567
-37.939
-38.352
-38.8
-39.277
-39.778
-40.295
-40.821
-41.35
-41.873
-42.384
-42.875
-43.338
-43.764
-44.147
-44.478
-44.751
-44.959
-45.095
-45.154
-45.131
-45.022
-44.825
-44.538
-44.158
-43.686
-43.121
-42.467
-41.727
-40.903
-40.001
-39.028
-37.989
-36.897
-35.76
-34.59
-33.397
-32.194
-30.992
-29.805
-28.643
-27.517
-26.434
-25.407
-24.444
-23.559
-22.762
-22.063
-21.473
-21.002
-20.659
-20.449
-20.374
-20.432
-20.62
-20.936
-21.383
-21.968
-22.691
-23.555
-24.557
-25.695
-26.959
-28.331
-29.781
-31.275
-32.776
-34.256
-35.694
-37.073
-38.371
-39.567
-40.628
-41.52
-42.219
-42.695
-42.921
-42.877
-42.569
-42.033
-41.332
-40.544
-39.733
-38.939
-38.212
-37.613
-37.213
-37.1
-37.37
-38.075
-39.31
-41.219
-43.793
-46.917
-50.326
-53.518
-56.063
-57.645
-57.812
-56.213
-52.932
-48.291
-43.044
-38.354
-34.925
-33.258
-34.086
-37.578
-43.15
-49.712
-55.254
-57.386
-54.496
-44.921
-26.583
1.633
40.002
87.915
143.214
203.397
266.217
328.184
384.692
431.705
465.093
481.031
477.093
450.696
401.138
331.862
247.404
150.839
41.857
-81.784
-218.021
-355.364
-472.747
-550.008
-577.196
-557.838
-509.462
-450.621
-392.294
-338.706
-286.88
-234.407
-183.644
-138.933
-105.11
-84.192
-75.036
-74.602
-79.064
-85.454
-90.989
-93.341
-91.415
-84.731
-73.518
-58.966
-42.491
-25.537
-9.853
3.327
13.476
20.321
24.03
25.07
23.894
21.129
17.555
13.692
9.856
6.265
2.984
0.081
-2.311
-4.128
-5.367
-6.009
-6.054
-5.502
-4.339
-2.593
-0.329
2.373
5.432
8.773
12.332
16.048
19.852
23.669
27.423
31.036
34.453
37.642
40.592
43.307
45.803
48.103
50.241
52.262
54.207
56.114
58.011
59.922
61.872
63.89
66.009
68.268
70.696
73.315
76.139
79.181
82.447
85.943
89.671
93.624
97.796
102.181
106.778
111.588
116.615
121.861
127.324
132.994
138.861
144.916
151.144
157.526
164.036
170.636
177.291
183.976
190.676
197.382
204.082
210.763
217.41
224.01
230.561
237.065
243.52
249.915
256.247
262.517
268.749
274.988
281.267
287.591
293.948
300.302
306.621
312.864
318.98
324.901
330.535
335.795
340.615
344.942
348.724
351.896
354.368
356.032
356.8
356.619
355.462
353.321
350.193
346.092
341.061
335.172
328.531
321.227
313.325
304.879
295.938
286.571
276.866
266.923
256.821
246.623
236.377
226.127
215.918
205.779
195.715
185.706
175.714
165.719
155.725
145.744
135.793
125.882
116.015
106.195
96.44
86.772
77.211
67.777
58.486
49.361
40.439
31.766
23.392
15.356
7.685
0.398
-6.486
-12.954
-18.992
-24.594
-29.762
-34.499
-38.804
-42.68
-46.125
-49.145
-51.752
-53.959
-55.781
-57.234
-58.332
-59.089
-59.523
-59.649
-59.483
-59.038
-58.33
-57.373
-56.184
-54.782
-53.185
-51.411
-49.479
-47.406
-45.211
-42.912
-40.526
-38.07
-35.559
-33.009
-30.436
-27.854
-25.279
-22.723
-20.201
-17.725
-15.308
-12.962
-10.698
-8.527
-6.459
-4.505
-2.674
-0.975
0.585
1.995
3.25
4.341
5.262
6.007
6.57
6.946
7.132
7.123
6.915
6.506
5.894
5.078
4.056
2.83
1.398
-0.237
-2.072
-4.104
-6.33
-8.743
-11.337
-14.106
-17.041
-20.133
-23.372
-26.748
-30.249
-33.862
-37.573
-41.368
-45.233
-49.153
-53.111
-57.091
-61.076
-65.051
-68.997
-72.899
-76.738
-80.498
-84.162
-87.713
-91.136
-94.415
-97.535
-100.482
-103.244
-105.809
-108.166
-110.306
-112.222
-113.907
-115.355
-116.565
-117.533
-118.261
-118.749
-119
-119.019
-118.813
-118.389
-117.756
-116.926
-115.908
-114.717
-113.366
-111.868
-110.241
-108.498
-106.658
-104.737
-102.752
-100.721
-98.662
-96.591
-94.527
-92.485
-90.482
-88.533
-86.653
-84.854
-83.148
-81.548
-80.063
-78.7
-77.467
-76.37
-75.412
-74.595
-73.921
-73.389
-72.996
-72.739
-72.613
-72.611
-72.728
-72.953
-73.279
-73.695
-74.191
-74.755
-75.376
-76.041
-76.739
-77.456
-78.18
-78.898
-79.599
-80.27
-80.9
-81.479
-81.996
-82.442
-82.81
-83.091
-83.28
-83.372
-83.361
-83.246
-83.024
-82.695
-82.259
-81.719
-81.076
-80.334
-79.499
-78.575
-77.569
-76.487
-75.337
-74.126
-72.863
-71.556
-70.214
-68.845
-67.458
-66.062
-64.665
-63.276
-61.902
-60.552
-59.231
-57.947
-56.705
-55.512
-54.37
-53.284
-52.258
-51.293
-50.391
-49.554
-48.781
-48.072
-47.425
-46.838
-46.31
-45.836
-45.413
-45.036
-44.703
-44.406
-44.143
-43.907
-43.694
-43.499
-43.316
-43.142
-42.97
-42.797
-42.618
-42.43
-42.228
-42.011
-41.775
-41.519
-41.24
-40.937
-40.611
-40.26
-39.886
-39.488
-39.069
-38.629
-38.171
-37.698
-37.211
-36.715
-36.214
-35.71
-35.209
-34.713
-34.229
-33.76
-33.311
-32.886
-32.49
-32.127
-31.801
-31.517
-31.278
-31.087
-30.948
-30.864
-30.837
-30.87
-30.964
-31.12
-31.338
-31.621
-31.966
-32.375
-32.846
-33.377
-33.967
-34.615
-35.318
-36.074
-36.879
-37.73
-38.624
-39.557
-40.524
-41.522
-42.546
-43.589
-44.648
-45.718
-46.791
-47.865
-48.932
-49.988
-51.026
-52.042
-53.029
-53.984
-54.901
-55.774
-56.6
-57.373
-58.092
-58.751
-59.348
-59.88
-60.345
-60.741
-61.067
-61.321
-61.503
-61.612
-61.649
-61.616
-61.513
-61.343
-61.108
-60.813
-60.461
-60.059
-59.612
-59.126
-58.609
-58.067
-57.509
-56.942
-56.374
-55.809
-55.257
-54.722
-54.214
-53.738
-53.301
-52.909
-52.569
-52.29
-52.078
-51.936
-51.864
-51.86
-51.927
-52.064
-52.278
-52.57
-52.937
-53.379
-53.896
-54.485
-55.143
-55.852
-56.579
-57.295
-57.972
-58.587
-59.129
-59.579
-59.908
-60.097
-60.116
-59.951
-59.601
-59.052
-58.285
-57.302
-56.116
-54.777
-53.395
-52.054
-50.831
-49.802
-48.999
-48.488
-48.373
-48.727
-49.646
-51.202
-53.387
-56.272
-59.984
-64.462
-69.542
-74.864
-79.765
-83.739
-86.446
-87.414
-86.34
-83.234
-78.265
-72.218
-66.352
-61.583
-58.695
-58.338
-60.469
-64.557
-69.622
-73.6
-74.017
-68.69
-55.249
-31.86
2.2
46.902
101.075
162.049
226.58
290.909
350.138
399.432
434.44
451.219
447.066
420.496
370.787
298.638
207.003
100.121
-16.835
-137.795
-256.549
-366.734
-462.009
-536.938
-588.309
-614.656
-615.756
-593.284
-550.539
-492.094
-423.672
-351.505
-280.615
-215.227
-159.427
-115.524
-84.111
-64.709
-55.376
-53.184
-55.747
-60.538
-64.419
-65.526
-63.049
-56.638
-47.014
-35.39
-22.63
-9.97
0.901
9.102
14.285
16.358
15.857
13.386
9.379
4.529
-0.315
-4.612
-8.01
-10.326
-11.641
-12.008
-11.426
-9.988
-7.812
-5.007
-1.697
2.023
6.091
10.414
14.874
19.343
23.676
27.738
31.442
34.728
37.566
39.942
41.856
43.321
44.365
45.037
45.387
45.466
45.322
45.003
44.566
44.075
43.598
43.202
42.939
42.846
42.953
43.285
43.863
44.704
45.819
47.21
48.883
50.847
53.112
55.689
58.584
61.801
65.34
69.203
73.39
77.903
82.741
87.901
93.382
99.178
105.286
111.7
118.41
125.405
132.67
140.188
147.942
155.911
164.076
172.413
180.897
189.505
198.211
206.99
215.813
224.653
233.482
242.27
250.987
259.604
268.091
276.416
284.549
292.46
300.118
307.495
314.561
321.287
327.645
333.61
339.155
344.257
348.892
353.04
356.68
359.795
362.368
364.385
365.834
366.704
366.987
366.676
365.768
364.26
362.154
359.451
356.156
352.277
347.822
342.802
337.232
331.128
324.507
317.39
309.8
301.76
293.297
284.439
275.214
265.655
255.791
245.657
235.286
224.712
213.971
203.096
192.125
181.091
170.03
158.978
147.967
137.032
126.204
115.517
105
94.681
84.59
74.752
65.192
55.932
46.992
38.393
30.15
22.279
14.791
7.697
1.005
-5.279
-11.152
-16.612
-21.66
-26.299
-30.532
-34.365
-37.807
-40.867
-43.555
-45.884
-47.866
-49.517
-50.851
-51.885
-52.636
-53.121
-53.359
-53.368
-53.166
-52.773
-52.207
-51.486
-50.631
-49.657
-48.584
-47.428
-46.205
-44.931
-43.62
-42.287
-40.944
-39.603
-38.274
-36.968
-35.693
-34.456
-33.266
-32.126
-31.044
-30.022
-29.065
-28.175
-27.355
-26.605
-25.926
-25.318
-24.782
-24.315
-23.916
-23.584
-23.316
-23.109
-22.961
-22.867
-22.825
-22.832
-22.883
-22.974
-23.104
-23.267
-23.461
-23.682
-23.929
-24.197
-24.486
-24.793
-25.115
-25.453
-25.803
-26.166
-26.539
-26.921
-27.312
-27.711
-28.116
-28.527
-28.944
-29.365
-29.79
-30.219
-30.651
-31.085
-31.522
-31.96
-32.401
-32.843
-33.286
-33.73
-34.176
-34.623
-35.071
-35.52
-35.97
-36.421
-36.871
-37.321
-37.77
-38.216
-38.66
-39.1
-39.536
-39.967
-40.392
-40.812
-41.225
-41.631
-42.03
-42.422
-42.807
-43.186
-43.558
-43.924
-44.286
-44.643
-44.997
-45.348
-45.699
-46.049
-46.399
-46.752
-47.107
-47.467
-47.832
-48.202
-48.581
-48.968
-49.365
-49.774
-50.197
-50.634
-51.087
-51.558
-52.048
-52.558
-53.09
-53.644
-54.222
-54.824
-55.452
-56.106
-56.785
-57.491
-58.223
-58.981
-59.763
-60.571
-61.401
-62.254
-63.128
-64.022
-64.934
-65.863
-66.807
-67.765
-68.735
-69.716
-70.706
-71.703
-72.704
-73.708
-74.713
-75.717
-76.717
-77.712
-78.699
-79.677
-80.643
-81.596
-82.534
-83.454
-84.355
-85.236
-86.094
-86.929
-87.74
-88.526
-89.286
-90.02
-90.729
-91.411
-92.068
-92.699
-93.306
-93.889
-94.448
-94.984
-95.498
-95.991
-96.464
-96.919
-97.356
-97.776
-98.181
-98.573
-98.951
-99.319
-99.676
-100.024
-100.364
-100.698
-101.027
-101.352
-101.673
-101.993
-102.312
-102.629
-102.947
-103.263
-103.579
-103.894
-104.207
-104.517
-104.822
-105.122
-105.414
-105.696
-105.967
-106.223
-106.462
-106.68
-106.876
-107.046
-107.186
-107.293
-107.364
-107.394
-107.381
-107.319
-107.206
-107.037
-106.807
-106.513
-106.15
-105.715
-105.204
-104.612
-103.937
-103.176
-102.324
-101.38
-100.34
-99.203
-97.967
-96.632
-95.195
-93.658
-92.02
-90.282
-88.447
-86.516
-84.493
-82.379
-80.18
-77.899
-75.543
-73.116
-70.624
-68.073
-65.472
-62.829
-60.155
-57.459
-54.753
-52.048
-49.355
-46.686
-44.052
-41.464
-38.929
-36.456
-34.054
-31.733
-29.502
-27.371
-25.35
-23.446
-21.668
-20.022
-18.51
-17.133
-15.889
-14.773
-13.786
-12.931
-12.216
-11.648
-11.229
-10.958
-10.835
-10.849
-10.988
-11.231
-11.549
-11.917
-12.318
-12.737
-13.168
-13.604
-14.025
-14.411
-14.738
-14.975
-15.106
-15.119
-15.013
-14.812
-14.557
-14.299
-14.107
-14.03
-14.11
-14.411
-14.985
-15.893
-17.22
-19.015
-21.369
-24.435
-28.231
-32.647
-37.453
-42.22
-46.539
-50.167
-52.716
-53.707
-53.092
-51.146
-48.543
-46.462
-45.753
-46.764
-50.045
-56.203
-65.045
-75.762
-86.678
-95.189
-99.332
-97.857
-89.086
-71.218
-43.328
-5.339
41.354
93.909
149.841
206.781
261.044
308.054
343.425
363.185
364.37
345.433
305.109
242.511
160.85
65.334
-40.721
-151.872
-265.712
-380.361
-484.649
-569.847
-627.658
-650.265
-643.742
-614.314
-568.022
-514.677
-455.671
-392.617
-329.382
-266.926
-209.644
-162.254
-125.814
-100.305
-84.204
-74.823
-70.255
-69.165
-69.53
-68.795
-65.438
-58.93
-49.416
-37.871
-25.13
-11.644
1.617
13.268
22.504
29.002
32.829
34.583
34.754
33.643
31.801
29.898
28.409
27.679
27.842
28.802
30.501
32.91
35.94
39.5
43.486
47.785
52.318
57.026
61.843
66.697
71.491
76.122
80.496
84.52
88.141
91.334
94.085
96.403
98.312
99.835
101.017
101.913
102.572
103.044
103.377
103.608
103.787
103.969
104.204
104.546
105.036
105.701
106.567
107.657
108.983
110.559
112.392
114.48
116.827
119.438
122.318
125.472
128.905
132.616
136.603
140.866
145.4
150.203
155.271
160.598
166.177
172
178.059
184.346
190.849
197.555
204.448
211.511
218.727
226.075
233.536
241.088
248.708
256.373
264.058
271.741
279.394
286.994
294.513
301.924
309.201
316.316
323.242
329.951
336.416
342.61
348.506
354.077
359.297
364.141
368.585
372.604
376.176
379.28
381.896
384.004
385.587
386.63
387.117
387.038
386.38
385.135
383.296
380.859
377.82
374.179
369.938
365.1
359.671
353.659
347.075
339.932
332.244
324.03
315.307
306.099
296.427
286.318
275.798
264.897
253.645
242.073
230.215
218.106
205.779
193.271
180.618
167.857
155.026
142.161
129.299
116.477
103.731
91.097
78.61
66.303
54.208
42.359
30.784
19.512
8.57
-2.017
-12.226
-22.037
-31.429
-40.387
-48.895
-56.941
-64.515
-71.608
-78.215
-84.332
-89.958
-95.094
-99.741
-103.906
-107.595
-110.816
-113.58
-115.899
-117.785
-119.254
-120.321
-121.004
-121.32
-121.288
-120.928
-120.26
-119.305
-118.084
-116.617
-114.927
-113.035
-110.961
-108.726
-106.352
-103.857
-101.262
-98.585
-95.845
-93.058
-90.24
-87.409
-84.577
-81.759
-78.967
-76.212
-73.506
-70.857
-68.275
-65.765
-63.335
-60.991
-58.736
-56.575
-54.511
-52.545
-50.681
-48.917
-47.256
-45.696
-44.236
-42.876
-41.612
-40.444
-39.368
-38.381
-37.481
-36.663
-35.925
-35.263
-34.672
-34.15
-33.693
-33.296
-32.956
-32.67
-32.433
-32.243
-32.096
-31.99
-31.921
-31.886
-31.884
-31.912
-31.968
-32.048
-32.152
-32.276
-32.42
-32.58
-32.755
-32.944
-33.143
-33.353
-33.57
-33.795
-34.025
-34.259
-34.495
-34.734
-34.972
-35.211
-35.448
-35.682
-35.913
-36.14
-36.363
-36.58
-36.791
-36.995
-37.192
-37.382
-37.562
-37.733
-37.894
-38.044
-38.184
-38.312
-38.428
-38.533
-38.626
-38.708
-38.78
-38.84
-38.89
-38.931
-38.963
-38.986
-39.002
-39.012
-39.016
-39.015
-39.01
-39.003
-38.994
-38.984
-38.973
-38.964
-38.956
-38.95
-38.947
-38.948
-38.954
-38.965
-38.982
-39.006
-39.038
-39.079
-39.128
-39.186
-39.254
-39.332
-39.419
-39.515
-39.619
-39.732
-39.852
-39.978
-40.109
-40.244
-40.381
-40.519
-40.655
-40.787
-40.914
-41.032
-41.141
-41.238
-41.32
-41.386
-41.434
-41.461
-41.465
-41.445
-41.398
-41.323
-41.218
-41.082
-40.913
-40.709
-40.471
-40.197
-39.887
-39.542
-39.161
-38.746
-38.298
-37.818
-37.31
-36.775
-36.217
-35.64
-35.049
-34.447
-33.84
-33.235
-32.636
-32.05
-31.484
-30.945
-30.439
-29.973
-29.554
-29.19
-28.887
-28.652
-28.493
-28.414
-28.424
-28.527
-28.729
-29.035
-29.451
-29.978
-30.622
-31.384
-32.266
-33.269
-34.394
-35.639
-37.002
-38.48
-40.069
-41.764
-43.559
-45.447
-47.419
-49.467
-51.58
-53.749
-55.962
-58.207
-60.471
-62.741
-65.005
-67.248
-69.457
-71.618
-73.717
-75.742
-77.678
-79.513
-81.235
-82.831
-84.29
-85.6
-86.753
-87.739
-88.549
-89.177
-89.616
-89.862
-89.911
-89.762
-89.414
-88.867
-88.122
-87.184
-86.056
-84.744
-83.254
-81.594
-79.773
-77.8
-75.685
-73.441
-71.08
-68.613
-66.054
-63.416
-60.712
-57.956
-55.16
-52.338
-49.504
-46.67
-43.85
-41.056
-38.301
-35.595
-32.951
-30.378
-27.887
-25.487
-23.185
-20.989
-18.905
-16.939
-15.096
-13.38
-11.796
-10.347
-9.036
-7.866
-6.84
-5.959
-5.225
-4.636
-4.195
-3.898
-3.744
-3.729
-3.85
-4.103
-4.486
-4.997
-5.631
-6.387
-7.263
-8.256
-9.362
-10.575
-11.882
-13.276
-14.747
-16.289
-17.906
-19.594
-21.348
-23.166
-25.043
-26.969
-28.933
-30.907
-32.852
-34.734
-36.523
-38.195
-39.743
-41.152
-42.401
-43.473
-44.339
-44.978
-45.383
-45.536
-45.421
-45.044
-44.432
-43.654
-42.819
-42.021
-41.335
-40.812
-40.498
-40.458
-40.773
-41.528
-42.809
-44.657
-47.135
-50.356
-54.308
-58.852
-63.698
-68.315
-72.198
-74.993
-76.265
-75.67
-73.277
-69.37
-64.598
-60.042
-56.403
-54.139
-53.873
-55.676
-58.875
-62.396
-64.416
-62.734
-55.922
-42.63
-21.138
9.327
48.672
96.048
149.286
205.908
263.91
320.517
371.766
414.066
444.198
459.316
457.561
437.075
395.937
335.321
260.068
174.72
82.596
-17.23
-128.405
-248.231
-365.839
-462.349
-518.901
-527.779
-494.44
-436.407
-372.202
-312.494
-260.128
-211.228
-162.77
-116.486
-76.411
-46.882
-29.402
-22.394
-22.95
-27.837
-34.503
-40.584
-43.958
-43.579
-39.186
-31.181
-20.689
-8.887
3.102
13.865
22.325
28.026
30.823
30.976
29.027
25.463
20.827
15.795
10.86
6.316
2.39
-0.85
-3.393
-5.198
-6.284
-6.717
-6.531
-5.757
-4.439
-2.606
-0.312
2.355
5.328
8.536
11.897
15.336
18.771
22.113
25.306
28.321
31.135
33.745
36.158
38.382
40.448
42.395
44.262
46.086
47.901
49.737
51.629
53.614
55.728
58.011
60.492
63.191
66.126
69.31
72.748
76.448
80.409
84.625
89.091
93.806
98.767
103.976
109.428
115.119
121.042
127.192
133.559
140.136
146.914
153.883
161.031
168.347
175.819
183.433
191.177
199.032
206.981
215.005
223.082
231.192
239.313
247.421
255.493
263.505
271.432
279.251
286.937
294.465
301.809
308.946
315.85
322.497
328.862
334.921
340.652
346.031
351.036
355.648
359.845
363.61
366.924
369.774
372.143
374.02
375.394
376.256
376.598
376.414
375.701
374.456
372.679
370.371
367.535
364.176
360.301
355.917
351.035
345.666
339.823
333.521
326.775
319.602
312.02
304.049
295.709
287.021
278.009
268.694
259.099
249.25
239.168
228.879
218.407
207.775
197.006
186.124
175.151
164.109
153.02
141.905
130.783
119.674
108.597
97.57
86.609
75.732
64.953
54.286
43.746
33.345
23.094
13.004
3.086
-6.652
-16.201
-25.553
-34.701
-43.64
-52.362
-60.865
-69.143
-77.192
-85.009
-92.591
-99.935
-107.04
-113.903
-120.523
-126.898
-133.026
-138.907
-144.542
-149.928
-155.068
-159.96
-164.608
-169.011
-173.172
-177.094
-180.778
-184.228
-187.447
-190.44
-193.21
-195.762
-198.102
-200.236
-202.17
-203.91
-205.464
-206.838
-208.042
-209.082
-209.967
-210.706
-211.308
-211.781
-212.135
-212.38
-212.524
-212.578
-212.55
-212.451
-212.289
-212.073
-211.812
-211.514
-211.186
-210.835
-210.469
-210.094
-209.715
-209.338
-208.968
-208.608
-208.262
-207.933
-207.624
-207.335
-207.068
-206.824
-206.602
-206.403
-206.226
-206.071
-205.935
-205.817
-205.716
-205.631
-205.558
-205.497
-205.446
-205.402
-205.365
-205.332
-205.303
-205.278
-205.255
-205.235
-205.217
-205.203
-205.193
-205.189
-205.191
-205.202
-205.224
-205.259
-205.309
-205.377
-205.465
-205.578
-205.716
-205.883
-206.082
-206.314
-206.582
-206.887
-207.23
-207.613
-208.034
-208.495
-208.994
-209.529
-210.097
-210.696
-211.321
-211.967
-212.629
-213.299
-213.969
-214.633
-215.28
-215.902
-216.487
-217.025
-217.504
-217.914
-218.242
-218.476
-218.603
-218.611
-218.488
-218.222
-217.801
-217.213
-216.447
-215.493
-214.341
-212.982
-211.407
-209.61
-207.584
-205.324
-202.825
-200.085
-197.103
-193.879
-190.413
-186.708
-182.769
-178.6
-174.208
-169.601
-164.788
-159.78
-154.586
-149.221
-143.696
-138.026
-132.225
-126.309
-120.293
-114.195
-108.029
-101.813
-95.564
-89.298
-83.032
-76.782
-70.565
-64.396
-58.292
-52.266
-46.333
-40.506
-34.797
-29.218
-23.779
-18.491
-13.36
-8.394
-3.599
1.019
5.457
9.712
13.783
17.667
21.367
24.882
28.216
31.37
34.349
37.157
39.798
42.277
44.601
46.776
48.807
50.702
52.467
54.111
55.639
57.059
58.38
59.607
60.748
61.81
62.799
63.721
64.582
65.387
66.141
66.848
67.512
68.137
68.725
69.279
69.8
70.291
70.751
71.182
71.583
71.955
72.298
72.61
72.892
73.143
73.362
73.548
73.701
73.82
73.903
73.951
73.963
73.938
73.875
73.774
73.635
73.458
73.244
72.993
72.706
72.384
72.029
71.641
71.224
70.78
70.31
69.819
69.309
68.784
68.247
67.702
67.153
66.604
66.057
65.517
64.987
64.47
63.969
63.486
63.023
62.583
62.167
61.777
61.413
61.077
60.767
60.485
60.229
59.999
59.793
59.611
59.45
59.309
59.185
59.075
58.977
58.887
58.801
58.715
58.626
58.529
58.419
58.293
58.147
57.976
57.778
57.55
57.288
56.99
56.655
56.28
55.865
55.41
54.914
54.38
53.808
53.201
52.562
51.893
51.2
50.485
49.753
49.009
48.258
47.504
46.753
46.01
45.281
44.573
43.891
43.242
42.633
42.07
41.559
41.103
40.706
40.37
40.097
39.888
39.744
39.664
39.649
39.698
39.814
39.996
40.244
40.553
40.918
41.335
41.799
42.304
42.846
43.418
44.017
44.637
45.281
45.943
46.613
47.279
47.919
48.512
49.043
49.497
49.864
50.136
50.307
50.378
50.362
50.267
50.102
49.87
49.571
49.21
48.806
48.385
47.976
47.607
47.291
47.03
46.804
46.587
46.334
45.992
45.5
44.778
43.729
42.257
40.26
37.624
34.262
30.025
24.711
18.274
10.806
2.55
-6.046
-14.607
-22.935
-30.659
-37.274
-42.701
-47.178
-51.366
-56.449
-63.166
-71.652
-82.258
-95.414
-110.784
-127.447
-143.599
-156.495
-164.162
-165.437
-158.709
-142.232
-115.066
-77.098
-29.698
24.341
82.619
142.748
200.879
252.336
292.527
316.978
322.348
306.516
267.364
205.382
125.165
31.712
-70.819
-182.127
-304.932
-436.029
-563.73
-668.195
-729.659
-740.309
-706.417
-646.389
-579.577
-516.902
-461.05
-408.323
-355.884
-305.605
-261.673
-228.362
-207.122
-196.477
-193.561
-195.129
-198.655
-201.793
-202.485
-199.798
-193.477
-183.843
-171.954
-158.937
-145.9
-134.284
-125.136
-118.845
-115.509
-114.825
-116.214
-119.168
-123.066
-127.101
-130.691
-133.466
-135.17
-135.771
-135.277
-133.652
-130.939
-127.229
-122.592
-117.115
-110.882
-103.952
-96.419
-88.401
-80.023
-71.43
-62.767
-54.164
-45.728
-37.53
-29.62
-22.027
-14.77
-7.853
-1.267
5.015
11.023
16.788
22.339
27.707
32.93
38.055
43.129
48.198
53.295
58.439
63.648
68.93
74.292
79.74
85.27
90.876
96.554
102.307
108.136
114.046
120.038
126.114
132.272
138.514
144.841
151.257
157.765
164.367
171.065
177.864
184.765
191.773
198.887
206.106
213.425
220.838
228.338
235.915
243.558
251.253
258.985
266.74
274.499
282.247
289.966
297.636
305.238
312.755
320.164
327.444
334.573
341.526
348.277
354.8
361.069
367.057
372.736
378.078
383.056
387.647
391.827
395.57
398.853
401.646
403.925
405.674
406.879
407.531
407.626
407.162
406.143
404.59
402.517
399.944
396.885
393.345
389.326
384.837
379.888
374.492
368.657
362.373
355.628
348.419
340.739
332.581
323.935
314.763
305.039
294.753
283.907
272.531
260.669
248.364
235.666
222.641
209.371
195.966
182.551
169.228
156.098
143.262
130.824
118.923
107.68
97.186
87.518
78.717
70.803
63.8
57.712
52.509
48.141
44.526
41.56
39.167
37.278
35.816
34.708
33.849
33.145
32.531
31.953
31.372
30.761
30.087
29.327
28.488
27.588
26.664
25.766
24.916
24.13
23.42
22.798
22.282
21.884
21.6
21.415
21.313
21.279
21.3
21.364
21.441
21.497
21.499
21.404
21.188
20.832
20.319
19.636
18.776
17.732
16.509
15.117
13.564
11.857
10.005
8.015
5.901
3.678
1.364
-1.025
-3.472
-5.962
-8.477
-11.001
-13.519
-16.017
-18.481
-20.897
-23.254
-25.534
-27.726
-29.813
-31.782
-33.621
-35.318
-36.86
-38.238
-39.445
-40.473
-41.316
-41.972
-42.438
-42.712
-42.796
-42.69
-42.398
-41.924
-41.274
-40.453
-39.471
-38.334
-37.053
-35.639
-34.101
-32.453
-30.707
-28.876
-26.974
-25.016
-23.015
-20.989
-18.951
-16.918
-14.906
-12.931
-11.008
-9.153
-7.381
-5.707
-4.145
-2.709
-1.41
-0.262
0.726
1.542
2.177
2.624
2.875
2.922
2.761
2.386
1.793
0.979
-0.058
-1.319
-2.807
-4.519
-6.455
-8.612
-10.988
-13.578
-16.378
-19.381
-22.581
-25.971
-29.542
-33.286
-37.191
-41.249
-45.448
-49.775
-54.219
-58.767
-63.406
-68.121
-72.9
-77.727
-82.588
-87.469
-92.355
-97.229
-102.077
-106.883
-111.632
-116.307
-120.893
-125.373
-129.734
-133.958
-138.031
-141.939
-145.668
-149.204
-152.534
-155.645
-158.527
-161.168
-163.558
-165.688
-167.551
-169.139
-170.447
-171.469
-172.202
-172.643
-172.792
-172.648
-172.212
-171.487
-170.476
-169.183
-167.614
-165.777
-163.681
-161.333
-158.747
-155.932
-152.902
-149.671
-146.254
-142.665
-138.921
-135.039
-131.036
-126.928
-122.735
-118.473
-114.162
-109.818
-105.459
-101.103
-96.768
-92.469
-88.222
-84.042
-79.944
-75.942
-72.047
-68.271
-64.624
-61.116
-57.755
-54.547
-51.498
-48.613
-45.894
-43.344
-40.963
-38.751
-36.705
-34.822
-33.098
-31.529
-30.107
-28.826
-27.678
-26.654
-25.747
-24.945
-24.239
-23.618
-23.073
-22.594
-22.168
-21.786
-21.439
-21.116
-20.809
-20.509
-20.209
-19.903
-19.584
-19.248
-18.891
-18.51
-18.102
-17.667
-17.202
-16.71
-16.192
-15.649
-15.085
-14.504
-13.911
-13.311
-12.712
-12.12
-11.543
-10.989
-10.466
-9.983
-9.549
-9.173
-8.864
-8.63
-8.481
-8.425
-8.471
-8.624
-8.892
-9.279
-9.788
-10.424
-11.186
-12.075
-13.087
-14.221
-15.475
-16.844
-18.324
-19.908
-21.593
-23.371
-25.237
-27.182
-29.196
-31.266
-33.38
-35.523
-37.682
-39.841
-41.983
-44.09
-46.149
-48.146
-50.069
-51.903
-53.631
-55.232
-56.69
-57.996
-59.145
-60.13
-60.949
-61.603
-62.104
-62.476
-62.74
-62.91
-62.991
-62.977
-62.869
-62.668
-62.378
-62.002
-61.531
-60.952
-60.259
-59.452
-58.529
-57.478
-56.265
-54.838
-53.159
-51.214
-49.01
-46.574
-43.931
-41.115
-38.172
-35.161
-32.166
-29.257
-26.487
-23.896
-21.525
-19.435
-17.707
-16.436
-15.696
-15.533
-15.963
-16.982
-18.575
-20.691
-23.261
-26.187
-29.353
-32.669
-36.065
-39.477
-42.846
-46.095
-49.132
-51.871
-54.24
-56.175
-57.647
-58.644
-59.182
-59.353
-59.248
-58.974
-58.65
-58.33
-58.078
-57.979
-58.099
-58.535
-59.387
-60.69
-62.521
-65.015
-68.119
-71.674
-75.379
-78.628
-80.932
-81.947
-81.176
-78.291
-73.417
-66.885
-59.47
-52.428
-46.615
-42.726
-41.669
-43.69
-48.21
-54.137
-59.467
-61.745
-59.086
-49.442
-30.426
-0.684
40.011
90.742
149.082
211.976
276.293
337.674
390.637
430.215
452.141
453.001
430.922
384.955
314.836
224.409
119.713
4.906
-113.948
-233.633
-351.586
-456.787
-540.895
-596.289
-616.017
-606.559
-574.826
-527.437
-474.413
-417.807
-359.531
-303.459
-250.749
-204.979
-169.317
-143.797
-127.666
-118.755
-114.183
-111.771
-109.634
-106.304
-100.724
-92.428
-81.689
-69.295
-56.382
-44.129
-33.653
-25.701
-20.717
-18.847
-19.846
-23.283
-28.574
-35.044
-41.975
-48.8
-55.116
-60.608
-65.109
-68.514
-70.756
-71.846
-71.855
-70.845
-68.873
-66.013
-62.337
-57.944
-52.966
-47.523
-41.734
-35.738
-29.661
-23.63
-17.773
-12.173
-6.878
-1.928
2.667
6.913
10.82
14.419
17.754
20.866
23.795
26.582
29.262
31.877
34.471
37.086
39.763
42.532
45.41
48.414
51.552
54.826
58.239
61.785
65.456
69.247
73.157
77.184
81.329
85.592
89.971
94.466
99.074
103.796
108.632
113.582
118.646
123.824
129.116
134.521
140.04
145.669
151.405
157.243
163.175
169.194
175.292
181.458
187.681
193.948
200.246
206.559
212.872
219.166
225.424
231.628
237.759
243.798
249.723
255.517
261.16
266.632
271.912
276.977
281.803
286.366
290.643
294.609
298.241
301.514
304.404
306.893
308.964
310.599
311.783
312.495
312.715
312.427
311.625
310.302
308.457
306.091
303.209
299.83
295.981
291.691
286.982
281.864
276.342
270.426
264.125
257.456
250.432
243.057
235.331
227.26
218.86
210.142
201.111
191.752
182.031
171.927
161.442
150.605
139.458
128.047
116.421
104.641
92.783
80.95
69.235
57.716
46.453
35.506
24.951
14.884
5.422
-3.341
-11.346
-18.561
-24.971
-30.565
-35.351
-39.362
-42.664
-45.351
-47.502
-49.177
-50.417
-51.266
-51.783
-52.048
-52.152
-52.164
-52.135
-52.103
-52.099
-52.157
-52.293
-52.501
-52.748
-52.984
-53.177
-53.317
-53.402
-53.435
-53.41
-53.315
-53.137
-52.878
-52.544
-52.139
-51.668
-51.13
-50.535
-49.902
-49.263
-48.655
-48.1
-47.614
-47.204
-46.876
-46.634
-46.482
-46.417
-46.43
-46.513
-46.661
-46.87
-47.137
-47.456
-47.816
-48.205
-48.61
-49.019
-49.425
-49.817
-50.187
-50.527
-50.83
-51.094
-51.316
-51.492
-51.62
-51.694
-51.711
-51.668
-51.563
-51.393
-51.157
-50.853
-50.482
-50.044
-49.543
-48.98
-48.358
-47.681
-46.952
-46.174
-45.352
-44.489
-43.591
-42.662
-41.706
-40.729
-39.736
-38.733
-37.724
-36.715
-35.711
-34.717
-33.736
-32.774
-31.833
-30.918
-30.033
-29.181
-28.365
-27.589
-26.856
-26.168
-25.529
-24.939
-24.401
-23.917
-23.486
-23.111
-22.791
-22.529
-22.324
-22.177
-22.09
-22.063
-22.096
-22.191
-22.348
-22.567
-22.849
-23.195
-23.604
-24.079
-24.619
-25.224
-25.897
-26.636
-27.443
-28.317
-29.259
-30.268
-31.344
-32.486
-33.693
-34.964
-36.298
-37.693
-39.148
-40.661
-42.228
-43.848
-45.516
-47.229
-48.983
-50.772
-52.592
-54.436
-56.299
-58.175
-60.057
-61.937
-63.808
-65.662
-67.491
-69.286
-71.04
-72.742
-74.386
-75.961
-77.461
-78.877
-80.201
-81.427
-82.546
-83.553
-84.441
-85.205
-85.839
-86.338
-86.699
-86.918
-86.993
-86.923
-86.706
-86.342
-85.833
-85.18
-84.386
-83.453
-82.386
-81.189
-79.868
-78.431
-76.884
-75.235
-73.493
-71.668
-69.769
-67.806
-65.789
-63.73
-61.638
-59.523
-57.398
-55.272
-53.155
-51.059
-48.992
-46.967
-44.991
-43.075
-41.227
-39.456
-37.769
-36.174
-34.676
-33.282
-31.997
-30.825
-29.769
-28.833
-28.018
-27.325
-26.755
-26.307
-25.979
-25.768
-25.672
-25.688
-25.81
-26.034
-26.354
-26.765
-27.261
-27.834
-28.478
-29.184
-29.946
-30.753
-31.598
-32.471
-33.361
-34.257
-35.149
-36.027
-36.879
-37.695
-38.466
-39.181
-39.833
-40.414
-40.916
-41.329
-41.645
-41.856
-41.955
-41.935
-41.788
-41.508
-41.086
-40.517
-39.799
-38.926
-37.895
-36.699
-35.328
-33.778
-32.051
-30.154
-28.094
-25.883
-23.536
-21.074
-18.532
-15.941
-13.329
-10.722
-8.136
-5.596
-3.133
-0.779
1.433
3.485
5.375
7.105
8.683
10.127
11.465
12.748
14.041
15.402
16.869
18.466
20.209
22.118
24.223
26.554
29.123
31.911
34.875
37.959
41.093
44.188
47.122
49.745
51.887
53.403
54.174
54.108
53.122
51.127
48.038
43.768
38.269
31.539
23.6
14.504
4.338
-6.784
-18.696
-31.186
-44.036
-57.037
-70
-82.768
-95.176
-107.066
-118.295
-128.707
-138.177
-146.616
-153.926
-160.055
-165.008
-168.811
-171.561
-173.403
-174.442
-174.835
-174.776
-174.293
-173.332
-171.729
-169.083
-165.106
-159.623
-152.295
-142.922
-131.717
-119.088
-105.882
-93.355
-82.345
-73.562
-67.908
-65.625
-66.186
-68.489
-70.426
-69.543
-64.01
-51.743
-30.393
1.352
43.854
96.123
155.503
219.162
284.406
347.271
402.891
446.631
474.166
482.877
471.71
439.426
385.44
311.187
219.967
116.597
6.857
-104.193
-211.565
-309.228
-391.457
-453.725
-493.379
-509.915
-504.247
-477.979
-434.036
-376.957
-312.161
-245.388
-181.478
-124.171
-76.348
-39.675
-14.545
-0.145
5.629
5.624
2.548
-0.921
-2.585
-1.315
3.407
11.504
22.092
33.987
45.917
56.338
64.157
68.998
70.763
69.703
66.369
61.298
55.16
48.836
42.953
37.845
33.713
30.535
28.243
26.853
26.311
26.502
27.356
28.796
30.748
33.213
36.149
39.444
42.974
46.551
49.972
53.117
55.906
58.294
60.28
61.837
62.926
63.541
63.669
63.281
62.34
60.75
58.406
55.274
51.37
46.776
41.628
36.014
29.998
23.647
17.011
10.17
3.237
-3.701
-10.549
-17.167
-23.38
-28.949
-33.591
-37.104
-39.345
-40.232
-39.747
-37.857
-34.526
-29.752
-23.548
-15.947
-7.017
3.192
14.625
27.171
40.678
54.938
69.688
84.72
99.876
115.021
130.069
144.929
159.508
173.751
187.62
201.083
214.118
226.692
238.758
250.308
261.358
271.949
282.155
292.017
301.546
310.746
319.599
328.082
336.175
343.836
351.004
357.625
363.648
369.028
373.735
377.734
380.98
383.431
385.043
385.784
385.648
384.639
382.761
380.025
376.442
372.029
366.82
360.846
354.132
346.71
338.599
329.809
320.356
310.252
299.493
288.076
275.991
263.212
249.74
235.587
220.771
205.333
189.308
172.739
155.693
138.241
120.464
102.472
84.374
66.295
48.392
30.813
13.711
-2.746
-18.428
-33.225
-47.036
-59.79
-71.428
-81.9
-91.19
-99.296
-106.225
-112.015
-116.716
-120.396
-123.168
-125.133
-126.394
-127.065
-127.233
-126.973
-126.357
-125.436
-124.251
-122.838
-121.217
-119.399
-117.4
-115.22
-112.849
-110.271
-107.441
-104.329
-100.917
-97.183
-93.122
-88.741
-84.045
-79.055
-73.807
-68.329
-62.66
-56.839
-50.899
-44.878
-38.821
-32.771
-26.781
-20.897
-15.155
-9.586
-4.218
0.928
5.834
10.488
14.888
19.03
22.911
26.529
29.881
32.968
35.792
38.359
40.673
42.744
44.575
46.174
47.549
48.706
49.654
50.4
50.952
51.316
51.502
51.522
51.386
51.105
50.688
50.148
49.495
48.739
47.888
46.951
45.935
44.847
43.694
42.48
41.21
39.888
38.517
37.101
35.64
34.137
32.592
31.007
29.381
27.715
26.01
24.266
22.483
20.662
18.804
16.908
14.977
13.01
11.009
8.976
6.911
4.818
2.699
0.557
-1.605
-3.782
-5.968
-8.159
-10.348
-12.529
-14.693
-16.834
-18.943
-21.011
-23.029
-24.987
-26.876
-28.687
-30.407
-32.029
-33.542
-34.937
-36.206
-37.34
-38.333
-39.176
-39.866
-40.395
-40.762
-40.96
-40.988
-40.844
-40.526
-40.034
-39.369
-38.533
-37.528
-36.358
-35.029
-33.546
-31.917
-30.149
-28.249
-26.227
-24.091
-21.853
-19.521
-17.107
-14.622
-12.078
-9.486
-6.859
-4.209
-1.548
1.115
3.768
6.401
9.006
11.575
14.1
16.576
18.995
21.35
23.637
25.849
27.981
30.027
31.983
33.844
35.61
37.279
38.854
40.336
41.728
43.033
44.255
45.395
46.456
47.436
48.331
49.141
49.868
50.514
51.087
51.588
52.017
52.374
52.654
52.846
52.934
52.891
52.687
52.305
51.727
50.948
49.97
48.793
47.421
45.862
44.111
42.163
40.02
37.666
35.101
32.342
29.413
26.364
23.26
20.136
17.026
13.956
10.915
7.893
4.86
1.757
-1.451
-4.793
-8.305
-11.997
-15.892
-20.049
-24.534
-29.437
-34.884
-40.963
-47.756
-55.346
-63.758
-72.99
-83.015
-93.744
-105.102
-117.023
-129.422
-142.231
-155.371
-168.717
-182.135
-195.47
-208.516
-221.097
-233.045
-244.174
-254.364
-263.528
-271.603
-278.594
-284.509
-289.349
-293.143
-295.923
-297.721
-298.615
-298.692
-298.05
-296.842
-295.202
-293.254
-291.144
-288.973
-286.819
-284.749
-282.79
-280.952
-279.255
-277.698
-276.275
-274.986
-273.806
-272.706
-271.653
-270.584
-269.45
-268.212
-266.826
-265.267
-263.525
-261.591
-259.472
-257.194
-254.774
-252.237
-249.61
-246.914
-244.176
-241.428
-238.701
-236.035
-233.466
-231.015
-228.708
-226.562
-224.59
-222.809
-221.222
-219.822
-218.604
-217.565
-216.701
-216.016
-215.512
-215.176
-215
-214.97
-215.074
-215.3
-215.627
-216.018
-216.434
-216.835
-217.192
-217.491
-217.715
-217.839
-217.833
-217.661
-217.294
-216.726
-215.952
-214.962
-213.753
-212.338
-210.76
-209.106
-207.488
-205.994
-204.699
-203.655
-202.893
-202.468
-202.458
-202.946
-204.01
-205.703
-208.027
-211.004
-214.687
-218.974
-223.62
-228.234
-232.232
-235.102
-236.511
-236.162
-233.8
-229.554
-223.745
-216.809
-209.592
-202.774
-196.76
-191.903
-188.183
-184.82
-180.72
-174.791
-165.589
-151.959
-132.761
-106.646
-73.011
-32.335
14.06
64.579
117.497
171.023
222.316
267.33
302.305
324.248
331.051
320.781
291.085
240.094
169.773
85.998
-5.742
-101.59
-202.96
-313.784
-430.705
-542.32
-629.855
-674.604
-669.437
-620.99
-547.716
-469.18
-397.412
-335.697
-279.21
-223.993
-171.166
-124.328
-87.972
-63.639
-49.139
-41.16
-36.847
-34.105
-30.993
-25.765
-17.433
-5.767
8.557
24.221
40.254
55.771
69.562
80.759
88.953
94.06
96.508
96.976
95.957
94.002
91.816
89.892
88.599
88.176
88.615
89.869
91.924
94.709
98.125
102.094
106.503
111.246
116.245
121.397
126.597
131.737
136.681
141.305
145.495
149.162
152.255
154.741
156.601
157.839
158.473
158.539
158.095
157.199
155.916
154.323
152.488
150.484
148.382
146.237
144.102
142.023
140.029
138.15
136.398
134.766
133.247
131.834
130.509
129.259
128.051
126.829
125.551
124.183
122.713
121.161
119.547
117.887
116.22
