Name
Date of Birth,"Aug 26, 1996"
Recorded Date,2018-12-07 21:17:32 -0500
Classification,Sinus Rhythm
Symptoms,
Software Version,1.1
Device,"Watch4,2"
Sample Rate,512.352 hertz


Lead,Lead I
Unit,µV

17.724
17.617
17.014
15.889
14.224
12.021
9.277
5.984
2.15
-2.204
-7.028
-12.242
-17.767
-23.528
-29.451
-35.472
-41.521
-47.515
-53.393
-59.106
-64.61
-69.875
-74.861
-79.508
-83.783
-87.663
-91.151
-94.276
-97.063
-99.528
-101.702
-103.615
-105.307
-106.833
-108.229
-109.511
-110.698
-111.805
-112.856
-113.892
-114.937
-116.003
-117.094
-118.2
-119.317
-120.448
-121.582
-122.701
-123.783
-124.795
-125.723
-126.562
-127.311
-127.967
-128.524
-128.972
-129.308
-129.54
-129.675
-129.72
-129.685
-129.574
-129.398
-129.179
-128.935
-128.69
-128.461
-128.259
-128.094
-127.977
-127.919
-127.927
-128.008
-128.164
-128.396
-128.71
-129.109
-129.595
-130.172
-130.835
-131.584
-132.415
-133.327
-134.317
-135.382
-136.519
-137.723
-138.993
-140.326
-141.718
-143.165
-144.663
-146.206
-147.788
-149.402
-151.042
-152.699
-154.368
-156.039
-157.705
-159.359
-160.995
-162.604
-164.18
-165.717
-167.208
-168.647
-170.028
-171.346
-172.597
-173.775
-174.877
-175.901
-176.843
-177.7
-178.472
-179.156
-179.752
-180.26
-180.678
-181.006
-181.246
-181.398
-181.463
-181.444
-181.342
-181.16
-180.903
-180.572
-180.173
-179.709
-179.184
-178.603
-177.971
-177.291
-176.569
-175.808
-175.013
-174.189
-173.338
-172.465
-171.573
-170.666
-169.745
-168.814
-167.874
-166.927
-165.974
-165.015
-164.052
-163.084
-162.112
-161.135
-160.153
-159.165
-158.169
-157.163
-156.146
-155.115
-154.068
-153
-151.91
-150.792
-149.644
-148.461
-147.24
-145.975
-144.662
-143.298
-141.878
-140.396
-138.85
-137.235
-135.547
-133.782
-131.939
-130.013
-128.003
-125.907
-123.724
-121.451
-119.09
-116.639
-114.098
-111.469
-108.751
-105.948
-103.06
-100.089
-97.04
-93.916
-90.72
-87.456
-84.131
-80.748
-77.315
-73.836
-70.319
-66.771
-63.2
-59.612
-56.017
-52.421
-48.835
-45.267
-41.724
-38.216
-34.751
-31.337
-27.982
-24.694
-21.48
-18.348
-15.304
-12.355
-9.507
-6.766
-4.136
-1.623
0.769
3.037
5.177
7.188
9.067
10.814
12.426
13.905
15.251
16.465
17.549
18.506
19.34
20.053
20.651
21.138
21.521
21.805
21.997
22.103
22.131
22.087
21.978
21.813
21.597
21.339
21.045
20.724
20.381
20.024
19.659
19.292
18.93
18.577
18.239
17.921
17.627
17.36
17.125
16.923
16.757
16.629
16.54
16.49
16.479
16.507
16.572
16.672
16.806
16.969
17.16
17.374
17.607
17.857
18.118
18.387
18.659
18.929
19.194
19.449
19.689
19.912
20.113
20.288
20.435
20.55
20.632
20.677
20.684
20.653
20.581
20.469
20.317
20.126
19.897
19.633
19.334
19.005
18.649
18.27
17.873
17.462
17.042
16.62
16.201
15.791
15.397
15.024
14.679
14.368
14.097
13.873
13.702
13.589
13.539
13.559
13.652
13.825
14.08
14.421
14.852
15.375
15.992
16.704
17.511
18.415
19.413
20.505
21.688
22.96
24.317
25.755
27.269
28.853
30.501
32.207
33.963
35.761
37.594
39.452
41.328
43.213
45.097
46.971
48.826
50.65
52.436
54.172
55.849
57.456
58.983
60.421
61.76
62.992
64.107
65.099
65.958
66.679
67.255
67.683
67.958
68.075
68.033
67.829
67.465
66.94
66.256
65.414
64.415
63.264
61.969
60.537
58.975
57.29
55.489
53.582
51.578
49.49
47.33
45.107
42.834
40.528
38.212
35.91
33.645
31.434
29.291
27.23
25.265
23.413
21.689
20.1
18.652
17.348
16.192
15.185
14.321
13.576
12.909
12.266
11.597
10.861
10.026
9.075
7.977
6.688
5.175
3.397
1.322
-1.047
-3.744
-6.828
-10.255
-13.912
-17.564
-20.822
-23.369
-24.989
-25.419
-24.491
-22.244
-18.837
-14.819
-11.052
-8.232
-6.971
-7.78
-10.725
-15.504
-21.494
-27.397
-31.562
-32.37
-28.068
-17.258
0.698
25.714
56.891
92.499
130.292
167.348
200.084
224.994
238.946
239.756
226.271
197.767
154.307
97.357
29.51
-45.732
-124.229
-202.506
-277.385
-345.021
-402.023
-446.007
-475.33
-489.783
-490.149
-476.775
-450.555
-413.88
-369.479
-320.281
-269.388
-218.999
-170.985
-127.893
-91.8
-63.486
-43.039
-29.755
-22.381
-19.931
-21.237
-24.377
-27.451
-29.284
-29.271
-27.416
-24.125
-19.728
-14.66
-9.782
-6.06
-4.062
-3.984
-5.688
-8.786
-12.927
-17.783
-22.885
-27.72
-31.955
-35.42
-38.08
-40.022
-41.313
-41.986
-42.107
-41.749
-40.954
-39.751
-38.165
-36.216
-33.954
-31.449
-28.767
-25.971
-23.118
-20.247
-17.39
-14.568
-11.786
-9.054
-6.39
-3.821
-1.388
0.867
2.922
4.765
6.395
7.817
9.041
10.081
10.956
11.687
12.29
12.777
13.152
13.429
13.627
13.776
13.917
14.087
14.313
14.618
15.019
15.529
16.158
16.913
17.79
18.785
19.896
21.124
22.471
23.937
25.515
27.198
28.971
30.826
32.755
34.751
36.808
38.923
41.091
43.309
45.577
47.895
50.257
52.661
55.099
57.565
60.053
62.558
65.073
67.592
70.105
72.604
75.077
77.513
79.9
82.226
84.474
86.633
88.689
90.63
92.446
94.127
95.661
97.039
98.248
99.276
100.112
100.749
101.178
101.394
101.396
101.185
100.766
100.148
99.336
98.331
97.133
95.737
94.14
92.341
90.336
88.128
85.72
83.114
80.315
77.327
74.15
70.778
67.199
63.395
59.362
55.106
50.635
45.977
41.156
36.205
31.166
26.074
20.959
15.854
10.78
5.76
0.828
-3.982
-8.626
-13.052
-17.225
-21.121
-24.72
-28.023
-31.037
-33.777
-36.278
-38.569
-40.67
-42.6
-44.368
-45.982
-47.459
-48.82
-50.085
-51.287
-52.45
-53.588
-54.72
-55.847
-56.965
-58.064
-59.118
-60.104
-61.011
-61.826
-62.548
-63.175
-63.703
-64.128
-64.45
-64.663
-64.762
-64.745
-64.608
-64.354
-63.992
-63.531
-62.986
-62.367
-61.685
-60.951
-60.175
-59.368
-58.538
-57.693
-56.84
-55.989
-55.149
-54.326
-53.52
-52.727
-51.942
-51.166
-50.403
-49.664
-48.951
-48.263
-47.595
-46.945
-46.306
-45.679
-45.054
-44.415
-43.756
-43.081
-42.407
-41.765
-41.178
-40.658
-40.214
-39.845
-39.559
-39.371
-39.292
-39.33
-39.497
-39.802
-40.267
-40.926
-41.794
-42.868
-44.132
-45.548
-47.086
-48.732
-50.468
-52.28
-54.153
-56.065
-58.004
-59.961
-61.923
-63.872
-65.783
-67.617
-69.349
-70.971
-72.484
-73.906
-75.244
-76.502
-77.683
-78.791
-79.829
-80.801
-81.703
-82.525
-83.262
-83.914
-84.486
-84.99
-85.433
-85.813
-86.125
-86.36
-86.511
-86.575
-86.548
-86.424
-86.2
-85.874
-85.449
-84.934
-84.333
-83.65
-82.886
-82.041
-81.119
-80.123
-79.057
-77.925
-76.731
-75.481
-74.178
-72.829
-71.439
-70.011
-68.549
-67.055
-65.532
-63.982
-62.409
-60.816
-59.205
-57.579
-55.942
-54.297
-52.647
-50.995
-49.344
-47.696
-46.053
-44.418
-42.792
-41.177
-39.575
-37.986
-36.412
-34.855
-33.315
-31.794
-30.291
-28.807
-27.344
-25.9
-24.477
-23.073
-21.69
-20.325
-18.98
-17.653
-16.344
-15.053
-13.778
-12.518
-11.273
-10.041
-8.821
-7.611
-6.41
-5.215
-4.027
-2.842
-1.659
-0.478
0.703
1.886
3.071
4.26
5.453
6.651
7.854
9.064
10.28
11.502
12.729
13.962
15.2
16.441
17.684
18.929
20.174
21.417
22.658
23.892
25.12
26.337
27.542
28.733
29.905
31.057
32.185
33.286
34.358
35.397
36.401
37.366
38.289
39.168
40
40.782
41.513
42.189
42.81
43.373
43.878
44.324
44.709
45.033
45.297
45.5
45.643
45.727
45.751
45.718
45.628
45.484
45.287
45.04
44.744
44.403
44.02
43.596
43.136
42.642
42.117
41.566
40.992
40.398
39.789
39.167
38.536
37.901
37.265
36.631
36.002
35.382
34.773
34.179
33.601
33.042
32.506
31.992
31.505
31.044
30.613
30.213
29.844
29.509
29.207
28.94
28.71
28.516
28.359
28.241
28.161
28.121
28.12
28.158
28.237
28.355
28.513
28.711
28.948
29.223
29.538
29.89
30.282
30.711
31.178
31.682
32.222
32.799
33.412
34.059
34.741
35.456
36.204
36.984
37.795
38.637
39.507
40.405
41.329
42.276
43.244
44.232
45.236
46.255
47.284
48.321
49.363
50.407
51.45
52.487
53.516
54.533
55.534
56.515
57.471
58.399
59.295
60.155
60.975
61.751
62.482
63.166
63.801
64.385
64.918
65.4
65.831
66.211
66.538
66.814
67.04
67.22
67.359
67.462
67.535
67.586
67.622
67.645
67.659
67.671
67.681
67.694
67.716
67.754
67.822
67.939
68.114
68.365
68.7
69.12
69.632
70.235
70.927
71.718
72.608
73.592
74.672
75.844
77.093
78.402
79.724
81
82.175
83.199
84.038
84.666
85.035
85.103
84.823
84.141
83.045
81.503
79.446
76.891
73.922
70.716
67.625
64.965
62.944
61.83
61.794
62.777
64.622
66.804
68.479
69.003
67.813
64.403
58.726
51.1
42.126
33.139
25.782
21.504
21.928
28.337
41.257
60.714
85.962
115.272
146.519
177.159
203.915
223.665
233.641
231.444
215.666
185.551
140.887
82.621
12.898
-65.42
-148.755
-233.397
-315.884
-392.246
-458.605
-511.943
-549.971
-571.587
-576.82
-565.908
-539.7
-500.578
-451.621
-396.185
-337.928
-279.8
-224.314
-174.413
-132.508
-99.565
-75.63
-59.886
-50.819
-47.107
-47.298
-49.177
-50.59
-50.242
-47.514
-42.472
-35.67
-27.574
-18.738
-10.171
-2.959
2.272
5.315
6.34
5.781
4.017
1.397
-1.585
-4.395
-6.693
-8.318
-9.249
-9.584
-9.4
-8.746
-7.714
-6.421
-4.961
-3.42
-1.858
-0.317
1.145
2.465
3.594
4.498
5.172
5.641
5.929
6.073
6.118
6.116
6.122
6.192
6.374
6.714
7.249
8.02
9.065
10.414
12.087
14.099
16.439
19.087
22.021
25.205
28.599
32.17
35.871
39.665
43.527
47.43
51.361
55.304
59.237
63.145
67.012
70.82
74.562
78.237
81.834
85.364
88.835
92.248
95.624
98.976
102.311
105.643
108.973
112.304
115.643
119.004
122.406
125.877
129.439
133.11
136.916
140.867
144.976
149.264
153.739
158.4
163.251
168.286
173.508
178.927
184.55
190.364
196.341
202.447
208.641
214.893
221.168
227.43
233.637
239.738
245.683
251.431
256.943
262.171
267.059
271.539
275.534
278.997
281.903
284.232
285.976
287.119
287.649
287.567
286.889
285.636
283.837
281.52
278.716
275.477
271.869
267.969
263.874
259.653
255.359
251.043
246.741
242.495
238.34
234.293
230.362
226.551
222.858
219.28
215.81
212.417
209.068
205.723
202.33
198.853
195.263
191.535
187.666
183.655
179.514
175.273
170.972
166.65
162.365
158.171
154.13
150.317
146.8
143.648
140.935
138.731
137.104
136.11
135.776
136.113
137.117
138.762
141.012
143.816
147.097
150.772
154.75
158.93
163.219
167.517
171.712
175.685
179.319
182.516
185.2
187.318
188.828
189.705
189.936
189.531
188.527
186.971
184.914
182.413
179.527
176.328
172.904
169.354
165.773
162.239
158.815
155.551
152.49
149.669
147.111
144.824
142.801
141.026
139.49
138.178
137.073
136.145
135.355
134.655
134.007
133.382
132.757
132.116
131.445
130.733
129.975
129.176
128.342
127.481
126.595
125.686
124.759
123.822
122.885
121.962
121.059
120.178
119.318
118.476
117.649
116.831
116.013
115.182
114.327
113.44
112.512
111.537
110.508
109.417
108.257
107.021
105.706
104.307
102.824
101.253
99.595
97.851
96.024
94.116
92.132
90.075
87.95
85.761
83.515
81.218
78.876
76.497
74.089
71.661
69.221
66.78
64.347
61.932
59.546
57.198
54.898
52.656
50.481
48.383
46.368
44.446
42.624
40.909
39.305
37.819
36.455
35.216
34.105
33.125
32.276
31.559
30.975
30.521
30.197
30.001
29.928
29.975
30.138
30.412
30.79
31.267
31.836
32.488
33.216
34.012
34.867
35.772
36.718
37.697
38.698
39.713
40.733
41.749
42.754
43.738
44.695
45.618
46.499
47.332
48.112
48.833
49.49
50.079
50.596
51.037
51.399
51.681
51.88
51.994
52.023
51.966
51.823
51.593
51.278
50.879
50.396
49.833
49.19
48.47
47.676
46.811
45.878
44.88
43.82
42.703
41.53
40.306
39.035
37.718
36.36
34.963
33.531
32.066
30.572
29.05
27.504
25.937
24.349
22.745
21.125
19.493
17.849
16.196
14.537
12.872
11.204
9.535
7.866
6.199
4.537
2.881
1.232
-0.409
-2.042
-3.664
-5.275
-6.876
-8.465
-10.043
-11.609
-13.16
-14.696
-16.215
-17.718
-19.204
-20.673
-22.126
-23.562
-24.982
-26.39
-27.786
-29.172
-30.545
-31.903
-33.248
-34.585
-35.922
-37.263
-38.615
-39.983
-41.375
-42.803
-44.272
-45.787
-47.342
-48.935
-50.567
-52.241
-53.969
-55.76
-57.617
-59.539
-61.52
-63.56
-65.659
-67.811
-70.007
-72.23
-74.475
-76.75
-79.075
-81.471
-83.948
-86.51
-89.154
-91.876
-94.678
-97.566
-100.545
-103.612
-106.768
-110.012
-113.358
-116.819
-120.394
-124.062
-127.78
-131.503
-135.197
-138.83
-142.379
-145.821
-149.127
-152.272
-155.237
-158.002
-160.555
-162.882
-164.957
-166.757
-168.28
-169.535
-170.563
-171.415
-172.133
-172.773
-173.381
-173.999
-174.672
-175.42
-176.262
-177.227
-178.333
-179.609
-181.086
-182.762
-184.647
-186.769
-189.057
-191.375
-193.512
-195.117
-195.896
-195.627
-194.03
-190.929
-186.36
-180.507
-173.905
-167.348
-161.491
-156.984
-154.46
-154.149
-155.905
-159.148
-162.625
-164.899
-164.515
-159.708
-148.86
-130.934
-106.247
-76.64
-44.397
-11.284
22.734
57.952
92.127
120.204
133.447
124.014
89.342
31.138
-42.429
-123.294
-206.868
-287.858
-365.072
-435.834
-494.42
-540.031
-571.394
-588.599
-594.953
-589.887
-572.8
-545.132
-508.156
-465.342
-420.491
-375.603
-332.231
-291.852
-256.153
-226.588
-203.674
-186.992
-175.535
-168.523
-165.331
-164.969
-165.927
-166.647
-166.192
-164.341
-161.345
-157.482
-152.966
-148.147
-143.688
-140.417
-138.785
-138.835
-140.352
-142.982
-146.427
-150.436
-154.645
-158.634
-162.142
-165.055
-167.379
-169.228
-170.688
-171.818
-172.708
-173.461
-174.172
-174.932
-175.813
-176.862
-178.126
-179.646
-181.446
-183.532
-185.883
-188.447
-191.152
-193.92
-196.677
-199.355
-201.891
-204.224
-206.294
-208.035
-209.389
-210.302
-210.732
-210.658
-210.072
-208.994
-207.471
-205.577
-203.413
-201.078
-198.649
-196.192
-193.763
-191.405
-189.164
-187.083
-185.196
-183.543
-182.163
-181.078
-180.3
-179.821
-179.605
-179.596
-179.717
-179.888
-180.05
-180.156
-180.169
-180.068
-179.833
-179.445
-178.894
-178.164
-177.23
-176.076
-174.69
-173.07
-171.232
-169.202
-167.019
-164.727
-162.363
-159.955
-157.52
-155.071
-152.612
-150.15
-147.684
-145.217
-142.759
-140.317
-137.902
-135.519
-133.172
-130.856
-128.568
-126.295
-124.027
-121.761
-119.495
-117.23
-114.97
-112.721
-110.488
-108.281
-106.106
-103.967
-101.872
-99.823
-97.826
-95.889
-94.02
-92.23
-90.529
-88.927
-87.433
-86.056
-84.804
-83.687
-82.716
-81.896
-81.233
-80.73
-80.389
-80.212
-80.196
-80.336
-80.625
-81.055
-81.619
-82.31
-83.126
-84.063
-85.12
-86.291
-87.572
-88.961
-90.461
-92.08
-93.828
-95.716
-97.757
-99.966
-102.367
-104.977
-107.81
-110.872
-114.159
-117.657
-121.351
-125.219
-129.245
-133.4
-137.648
-141.94
-146.226
-150.457
-154.587
-158.566
-162.328
-165.812
-168.962
-171.741
-174.127
-176.113
-177.699
-178.887
-179.68
-180.094
-180.16
-179.919
-179.417
-178.692
-177.769
-176.692
-175.52
-174.323
-173.162
-172.081
-171.105
-170.25
-169.531
-168.962
-168.56
-168.325
-168.249
-168.318
-168.518
-168.854
-169.338
-169.967
-170.717
-171.553
-172.44
-173.363
-174.32
-175.31
-176.326
-177.361
-178.411
-179.48
-180.582
-181.722
-182.903
-184.113
-185.332
-186.556
-187.792
-189.058
-190.368
-191.725
-193.127
-194.572
-196.063
-197.602
-199.188
-200.808
-202.452
-204.109
-205.778
-207.462
-209.165
-210.884
-212.611
-214.334
-216.043
-217.73
-219.391
-221.018
-222.602
-224.136
-225.617
-227.044
-228.418
-229.74
-231.004
-232.208
-233.348
-234.423
-235.434
-236.381
-237.265
-238.086
-238.846
-239.546
-240.189
-240.778
-241.312
-241.792
-242.219
-242.593
-242.914
-243.184
-243.403
-243.572
-243.69
-243.758
-243.776
-243.746
-243.665
-243.534
-243.352
-243.119
-242.832
-242.492
-242.097
-241.645
-241.135
-240.566
-239.935
-239.241
-238.481
-237.653
-236.756
-235.786
-234.742
-233.62
-232.418
-231.134
-229.766
-228.31
-226.765
-225.13
-223.401
-221.579
-219.662
-217.649
-215.541
-213.336
-211.034
-208.637
-206.145
-203.559
-200.88
-198.111
-195.253
-192.309
-189.281
-186.174
-182.989
-179.731
-176.403
-173.01
-169.554
-166.041
-162.475
-158.861
-155.204
-151.509
-147.782
-144.027
-140.252
-136.462
-132.663
-128.86
-125.061
-121.27
-117.493
-113.736
-110.005
-106.305
-102.641
-99.02
-95.445
-91.922
-88.457
-85.053
-81.714
-78.447
-75.252
-72.135
-69.097
-66.142
-63.273
-60.49
-57.798
-55.196
-52.687
-50.275
-47.959
-45.743
-43.625
-41.606
-39.685
-37.86
-36.13
-34.491
-32.941
-31.476
-30.092
-28.789
-27.569
-26.426
-25.356
-24.347
-23.393
-22.483
-21.611
-20.765
-19.933
-19.105
-18.273
-17.44
-16.605
-15.768
-14.919
-14.045
-13.131
-12.167
-11.15
-10.084
-8.967
-7.801
-6.59
-5.347
-4.092
-2.841
-1.592
-0.328
0.971
2.316
3.709
5.144
6.615
8.125
9.683
11.306
13.004
14.796
16.709
18.791
21.098
23.681
26.558
29.727
33.178
36.903
40.906
45.192
49.758
54.596
59.683
64.994
70.502
76.159
81.899
87.632
93.248
98.648
103.759
108.528
112.913
116.874
120.369
123.361
125.825
127.738
129.091
129.887
130.134
129.873
129.169
128.106
126.798
125.355
123.872
122.44
121.144
120.06
119.266
118.841
118.847
119.353
120.415
122.071
124.353
127.266
130.792
134.902
139.543
144.646
150.147
155.98
162.065
168.333
174.705
181.077
187.363
193.47
199.32
204.872
210.079
214.894
219.283
223.205
226.634
229.597
232.11
234.166
235.842
237.259
238.625
240.305
242.641
245.889
250.246
255.805
262.472
270.037
278.092
285.967
292.95
298.388
301.92
303.562
303.745
303.229
302.943
304.084
308.139
316.676
330.75
350.773
376.264
405.991
438.62
472.374
504.61
532.208
552.188
561.955
560.046
545.868
518.692
478.515
426.614
365.192
297.292
226.395
155.394
87.152
25.34
-26.769
-66.642
-92.394
-103.426
-99.89
-82.025
-51.099
-9.769
38.98
91.813
145.248
196.531
243.032
282.221
312.821
334.736
348.457
355.239
356.766
354.57
350.602
346.933
344.741
344.535
346.418
349.964
354.584
359.731
364.497
367.849
369.292
368.686
366.157
362.122
356.977
351.067
344.893
339.004
333.744
329.31
325.756
322.997
320.982
319.684
319.039
318.975
319.419
320.291
321.525
323.06
324.815
326.696
328.595
330.396
332.004
333.337
334.342
334.998
335.286
335.197
334.725
333.861
332.609
330.986
329.014
326.72
324.138
321.3
318.256
315.064
311.78
308.457
305.134
301.833
298.573
295.371
292.243
289.205
286.269
283.439
280.721
278.121
275.643
273.292
271.065
268.952
266.941
265.022
263.185
261.429
259.749
258.145
256.613
255.15
253.756
252.43
251.171
249.976
248.841
247.761
246.734
245.758
244.833
243.957
243.128
242.343
241.595
240.879
240.189
239.518
238.864
238.22
237.577
236.928
236.265
235.58
234.863
234.1
233.275
232.368
231.368
230.265
229.056
227.739
226.309
224.762
223.096
221.314
219.424
217.433
215.342
213.157
210.884
208.542
206.159
203.763
201.369
198.981
196.597
194.219
191.844
189.475
187.097
184.683
182.205
179.637
176.963
174.168
171.226
168.099
164.737
161.101
157.167
152.93
148.388
143.536
138.373
132.899
127.141
121.152
114.98
108.672
102.27
95.816
89.37
83.009
76.811
70.838
65.138
59.741
54.679
49.987
45.698
41.84
38.415
35.403
32.787
30.558
28.701
27.2
26.02
25.111
24.437
23.978
23.729
23.692
23.863
24.233
24.798
25.555
26.514
27.691
29.094
30.72
32.566
34.631
36.922
39.448
42.192
45.114
48.156
51.261
54.383
57.478
60.5
63.396
66.115
68.611
70.85
72.81
74.473
75.82
76.824
77.482
77.815
77.873
77.731
77.449
77.075
76.654
76.232
75.857
75.579
75.433
75.439
75.618
75.984
76.56
77.375
78.431
79.707
81.158
82.715
84.325
85.953
87.563
89.124
90.604
91.971
93.207
94.308
95.265
96.065
96.687
97.102
97.3
97.289
97.088
96.735
96.255
95.661
94.97
94.196
93.35
92.443
91.477
90.442
89.338
88.171
86.949
85.69
84.403
83.09
81.749
80.372
78.956
77.501
76.007
74.471
72.896
71.285
69.645
67.989
66.327
64.665
63.007
61.358
59.72
58.101
56.506
54.941
53.413
51.927
50.491
49.11
47.792
46.539
45.357
44.246
43.207
42.243
41.355
40.543
39.807
39.147
38.563
38.054
37.619
37.256
36.962
36.735
36.57
36.464
36.413
36.412
36.457
36.542
36.664
36.816
36.993
37.191
37.402
37.623
37.847
38.068
38.28
38.48
38.66
38.817
38.945
39.041
39.102
39.123
39.102
39.037
38.927
38.769
38.564
38.31
38.007
37.657
37.26
36.819
36.334
35.808
35.244
34.646
34.016
33.359
32.678
31.978
31.263
30.539
29.811
29.083
28.361
27.651
26.958
26.288
25.646
25.037
24.467
23.939
23.458
23.029
22.655
22.339
22.084
21.893
21.766
21.707
21.715
21.792
21.936
22.148
22.426
22.769
23.175
23.643
24.169
24.75
25.384
26.066
26.793
27.561
28.364
29.198
30.059
30.941
31.838
32.747
33.661
34.575
35.484
36.382
37.265
38.129
38.967
39.776
40.551
41.29
41.989
42.644
43.254
43.816
44.328
44.789
45.199
45.557
45.863
46.116
46.317
46.468
46.57
46.623
46.629
46.591
46.51
46.389
46.229
46.035
45.807
45.55
45.265
44.956
44.626
44.278
43.915
43.541
43.157
42.768
42.375
41.982
41.591
41.204
40.822
40.449
40.084
39.73
39.387
39.056
38.738
38.432
38.138
37.857
37.589
37.332
37.087
36.853
36.629
36.416
36.212
36.017
35.831
35.653
35.483
35.319
35.163
35.012
34.866
34.725
34.587
34.454
34.323
34.194
34.068
33.944
33.822
33.702
33.584
33.468
33.356
33.248
33.144
33.045
32.953
32.869
32.792
32.726
32.67
32.625
32.593
32.573
32.566
32.573
32.593
32.626
32.673
32.734
32.807
32.894
32.994
33.106
33.23
33.365
33.511
33.668
33.833
34.008
34.189
34.377
34.571
34.768
34.967
35.167
35.366
35.562
35.754
35.938
36.115
36.281
36.435
36.575
36.701
36.811
36.904
36.979
37.036
37.074
37.093
37.092
37.072
37.032
36.973
36.895
36.798
36.682
36.549
36.399
36.232
36.05
35.854
35.646
35.426
35.197
34.962
34.722
34.479
34.237
33.998
33.765
33.54
33.328
33.13
32.949
32.788
32.65
32.536
32.45
32.393
32.367
32.375
32.419
32.499
32.619
32.78
32.983
33.23
33.523
33.862
34.25
34.686
35.172
35.707
36.292
36.926
37.607
38.333
39.103
39.914
40.763
41.647
42.562
43.505
44.472
45.461
46.468
47.488
48.517
49.551
50.584
51.613
52.634
53.641
54.632
55.603
56.55
57.472
58.364
59.223
60.043
60.82
61.55
62.233
62.871
63.465
64.019
64.538
65.032
65.513
65.99
66.47
66.96
67.464
67.992
68.557
69.168
69.837
70.569
71.362
72.215
73.124
74.077
75.06
76.046
76.996
77.879
78.667
79.334
79.851
80.172
80.253
80.053
79.54
78.71
77.558
76.072
74.236
72.032
69.454
66.545
63.356
59.906
56.273
52.577
49.017
45.936
43.679
42.508
42.604
44.052
46.741
50.431
54.703
58.867
62.157
63.848
63.485
61.001
56.797
51.631
46.458
42.573
41.548
45.054
54.37
70.078
91.843
118.607
148.943
180.776
211.259
236.969
254.41
260.649
253.754
232.494
196.221
145.351
81.481
7.515
-72.65
-155.031
-235.84
-311.049
-376.887
-430.312
-468.988
-492.007
-499.665
-492.555
-472.062
-440.798
-401.719
-358.001
-313.105
-269.652
-229.862
-196.186
-170.014
-151.484
-140.268
-135.307
-134.944
-137.898
-142.616
-146.987
-149.758
-150.424
-148.78
-145.275
-140.618
-135.299
-130.132
-126.266
-124.311
-124.513
-126.907
-131.108
-136.714
-143.421
-150.753
-158.154
-165.259
-171.81
-177.652
-182.796
-187.228
-190.907
-193.844
-196.041
-197.489
-198.203
-198.198
-197.495
-196.141
-194.204
-191.757
-188.888
-185.687
-182.246
-178.658
-174.993
-171.316
-167.687
-164.171
-160.845
-157.779
-155.02
-152.595
-150.521
-148.802
-147.447
-146.454
-145.806
-145.479
-145.445
-145.677
-146.158
-146.87
-147.787
-148.878
-150.1
-151.417
-152.807
-154.254
-155.747
-157.278
-158.837
-160.418
-162.026
-163.668
-165.348
-167.07
-168.831
-170.633
-172.479
-174.377
-176.335
-178.359
-180.447
-182.597
-184.804
-187.062
-189.366
-191.706
-194.068
-196.441
-198.814
-201.176
-203.521
-205.839
-208.119
-210.352
-212.528
-214.641
-216.682
-218.647
-220.53
-222.326
-224.032
-225.647
-227.169
-228.599
-229.937
-231.183
-232.339
-233.405
-234.386
-235.283
-236.101
-236.843
-237.515
-238.122
-238.67
-239.165
-239.613
-240.023
-240.401
-240.755
-241.093
-241.421
-241.748
-242.081
-242.427
-242.792
-243.183
-243.604
-244.062
-244.559
-245.101
-245.689
-246.326
-247.014
-247.754
-248.545
-249.388
-250.279
-251.218
-252.2
-253.222
-254.28
-255.369
-256.483
-257.617
-258.764
-259.918
-261.072
-262.217
-263.346
-264.45
-265.521
-266.549
-267.524
-268.439
-269.282
-270.046
-270.722
-271.302
-271.779
-272.145
-272.396
-272.526
-272.531
-272.404
-272.141
-271.737
-271.188
-270.49
-269.639
-268.633
-267.471
-266.15
-264.673
-263.04
-261.254
-259.316
-257.226
-254.984
-252.591
-250.052
-247.37
-244.555
-241.614
-238.561
-235.413
-232.188
-228.899
-225.558
-222.171
-218.738
-215.261
-211.742
-208.179
-204.577
-200.941
-197.27
-193.568
-189.838
-186.071
-182.26
-178.384
-174.417
-170.348
-166.173
-161.892
-157.524
-153.086
-148.603
-144.107
-139.622
-135.17
-130.77
-126.437
-122.18
-118.024
-113.993
-110.121
-106.453
-103.014
-99.821
-96.883
-94.19
-91.725
-89.461
-87.355
-85.37
-83.478
-81.654
-79.882
-78.15
-76.433
-74.71
-72.954
-71.128
-69.205
-67.168
-64.998
-62.695
-60.266
-57.726
-55.103
-52.425
-49.709
-46.969
-44.212
-41.443
-38.67
-35.901
-33.141
-30.405
-27.703
-25.044
-22.439
-19.893
-17.405
-14.973
-12.586
-10.235
-7.917
-5.629
-3.373
-1.152
1.031
3.169
5.258
7.291
9.266
11.18
13.031
14.819
16.54
18.19
19.767
21.266
22.685
24.023
25.279
26.453
27.548
28.565
29.508
30.382
31.189
31.935
32.624
33.258
33.843
34.383
34.883
35.349
35.785
36.197
36.593
36.977
37.356
37.736
38.124
38.525
38.944
39.387
39.86
40.365
40.909
41.495
42.126
42.805
43.535
44.318
45.156
46.049
46.998
48.003
49.063
50.176
51.341
52.555
53.816
55.119
56.463
57.841
59.252
60.688
62.146
63.621
65.105
66.593
68.08
69.559
71.023
72.467
73.884
75.268
76.614
77.916
79.168
80.367
81.506
82.581
83.589
84.524
85.386
86.169
86.872
87.494
88.032
88.486
88.855
89.14
89.341
89.458
89.492
89.446
89.321
89.119
88.842
88.494
88.077
87.594
87.049
86.444
85.784
85.071
84.309
83.501
82.65
81.76
80.831
79.869
78.874
77.85
76.798
75.721
74.619
73.495
72.348
71.181
69.992
68.783
67.553
66.302
65.028
63.733
62.413
61.07
59.701
58.306
56.883
55.432
53.951
52.439
50.895
49.32
47.711
46.069
44.394
42.685
40.944
39.171
37.367
35.534
33.671
31.782
29.868
27.931
25.973
23.997
22.007
20.004
17.993
15.977
13.961
11.947
9.94
7.944
5.964
4.003
2.065
0.155
-1.724
-3.568
-5.373
-7.136
-8.853
-10.523
-12.142
-13.707
-15.219
-16.674
-18.071
-19.411
-20.692
-21.913
-23.075
-24.178
-25.222
-26.207
-27.135
-28.006
-28.821
-29.583
-30.291
-30.948
-31.556
-32.117
-32.633
-33.105
-33.537
-33.93
-34.287
-34.61
-34.902
-35.165
-35.401
-35.612
-35.799
-35.965
-36.11
-36.236
-36.343
-36.434
-36.508
-36.566
-36.611
-36.641
-36.658
-36.664
-36.659
-36.644
-36.62
-36.59
-36.555
-36.517
-36.479
-36.444
-36.413
-36.39
-36.378
-36.378
-36.394
-36.428
-36.482
-36.558
-36.66
-36.791
-36.956
-37.159
-37.406
-37.701
-38.051
-38.462
-38.939
-39.487
-40.11
-40.814
-41.604
-42.485
-43.465
-44.543
-45.722
-47.002
-48.38
-49.855
-51.422
-53.071
-54.794
-56.581
-58.425
-60.324
-62.274
-64.274
-66.319
-68.403
-70.524
-72.689
-74.908
-77.187
-79.538
-81.966
-84.483
-87.107
-89.856
-92.741
-95.77
-98.937
-102.232
-105.649
-109.18
-112.818
-116.547
-120.33
-124.121
-127.878
-131.558
-135.121
-138.524
-141.708
-144.616
-147.203
-149.433
-151.291
-152.766
-153.843
-154.503
-154.732
-154.53
-153.925
-152.965
-151.698
-150.167
-148.42
-146.514
-144.525
-142.535
-140.609
-138.797
-137.135
-135.652
-134.391
-133.4
-132.724
-132.392
-132.411
-132.763
-133.436
-134.418
-135.686
-137.208
-138.933
-140.796
-142.754
-144.778
-146.846
-148.94
-151.029
-153.075
-155.04
-156.897
-158.634
-160.246
-161.727
-163.072
-164.283
-165.371
-166.36
-167.28
-168.147
-168.962
-169.722
-170.422
-171.064
-171.658
-172.21
-172.718
-173.179
-173.587
-173.936
-174.216
-174.409
-174.488
-174.423
-174.184
-173.752
-173.117
-172.274
-171.22
-169.947
-168.447
-166.716
-164.756
-162.572
-160.172
-157.577
-154.823
-151.961
-149.055
-146.164
-143.328
-140.592
-138.005
-135.612
-133.468
-131.626
-130.108
-128.961
-128.253
-127.97
-128.042
-128.299
-128.424
-128.147
-127.262
-125.51
-122.715
-118.908
-114.229
-109.154
-104.429
-100.605
-98.158
-97.529
-98.773
-101.618
-105.514
-109.25
-111.343
-110.511
-105.332
-94.63
-77.862
-54.909
-26.367
6.236
41.013
75.727
107.44
133.255
150.494
156.733
150.473
130.871
97.557
51.211
-6.355
-72.589
-144.147
-217.46
-289.167
-355.444
-412.572
-457.617
-488.239
-503.273
-502.674
-486.671
-456.305
-414.081
-362.98
-306.264
-247.626
-189.955
-135.769
-87.909
-48.085
-16.624
6.698
22.973
33.98
41.11
46.046
51.073
57.574
66.141
77.039
89.783
103.594
117.927
131.915
144.359
154.629
162.458
167.788
170.998
172.494
172.583
171.744
170.531
169.292
168.264
167.583
167.234
167.238
167.632
168.395
169.503
170.929
172.651
174.671
176.987
179.57
182.379
185.366
188.487
191.703
194.966
198.22
201.403
204.449
207.295
209.875
212.121
213.98
215.41
216.37
216.838
216.802
216.245
215.156
213.529
211.352
208.624
205.359
201.573
197.3
192.597
187.538
182.207
176.683
171.039
165.344
159.668
154.068
148.599
143.311
138.249
133.464
129.009
124.93
121.272
118.072
115.336
113.053
111.204
109.757
108.68
107.941
107.496
107.312
107.364
107.628
108.087
108.717
109.485
110.355
111.288
112.237
113.172
114.072
114.923
115.728
116.496
117.235
117.967
118.707
119.463
120.248
121.064
121.91
122.791
123.713
124.69
125.751
126.915
128.197
129.599
131.105
132.696
134.348
136.026
137.692
139.304
140.808
142.164
143.344
144.318
145.06
145.535
145.691
145.487
144.896
143.899
142.497
140.693
138.493
135.918
133.004
129.797
126.36
122.741
118.976
115.104
111.159
107.186
103.239
99.365
95.597
91.963
88.484
85.18
82.072
79.164
76.452
73.922
71.548
69.317
67.225
65.268
63.439
61.733
60.135
58.639
57.247
55.957
54.769
53.68
52.685
51.786
50.99
50.305
49.74
49.3
48.982
48.784
48.702
48.73
48.862
49.088
49.394
49.767
50.197
50.673
51.184
51.718
52.261
52.799
53.318
53.807
54.253
54.646
54.975
55.229
55.402
55.485
55.472
55.358
55.134
54.797
54.341
53.761
53.053
52.215
51.243
50.136
48.894
47.517
46.006
44.363
42.59
40.69
38.668
36.529
34.277
31.917
29.458
26.904
24.263
21.544
18.754
15.901
12.994
10.043
7.056
4.043
1.013
-2.025
-5.061
-8.085
-11.089
-14.062
-16.995
-19.878
-22.703
-25.459
-28.139
-30.734
-33.236
-35.637
-37.929
-40.107
-42.164
-44.093
-45.891
-47.551
-49.07
-50.444
-51.668
-52.742
-53.661
-54.425
-55.032
-55.482
-55.775
-55.912
-55.894
-55.723
-55.401
-54.931
-54.316
-53.559
-52.664
-51.635
-50.477
-49.194
-47.791
-46.275
-44.65
-42.922
-41.096
-39.177
-37.172
-35.083
-32.915
-30.674
-28.362
-25.985
-23.547
-21.051
-18.503
-15.907
-13.267
-10.587
-7.869
-5.114
-2.324
0.501
3.362
6.26
9.195
12.171
15.188
18.247
21.347
24.49
27.677
30.914
34.204
37.546
40.941
44.388
47.883
51.425
55.008
58.62
62.249
65.883
69.517
73.152
76.787
80.423
84.056
87.683
91.309
94.945
98.602
102.286
106.006
109.764
113.575
117.468
121.467
125.588
129.837
134.205
138.686
143.277
147.97
152.75
157.585
162.424
167.22
171.939
176.546
181.005
185.267
189.265
192.942
196.258
199.188
201.72
203.838
205.517
206.741
207.518
207.881
207.886
207.584
207.018
206.231
205.277
204.228
203.165
202.155
201.246
200.471
199.862
199.461
199.315
199.468
199.938
200.715
201.778
203.104
204.674
206.463
208.431
210.516
212.664
214.833
216.996
219.138
221.235
223.256
225.165
226.926
228.52
229.937
231.174
232.222
233.079
233.747
234.238
234.578
234.786
234.868
234.823
234.642
234.32
233.854
233.244
232.488
231.584
230.528
229.318
227.956
226.441
224.779
222.964
220.987
218.841
216.515
214.005
211.311
208.431
205.367
202.115
198.668
195.021
191.172
187.116
182.849
178.358
173.621
168.625
163.364
157.84
152.074
146.083
139.885
133.509
126.984
120.352
113.671
106.984
100.328
93.744
87.267
80.948
74.851
69.029
63.523
58.365
53.566
49.136
45.085
41.404
38.071
35.052
32.294
29.757
27.417
25.244
23.215
21.294
19.435
17.603
15.774
13.927
12.05
10.132
8.163
6.147
4.102
2.057
0.053
-1.878
-3.713
-5.436
-7.032
-8.489
-9.792
-10.937
-11.924
-12.758
-13.437
-13.958
-14.322
-14.531
-14.6
-14.551
-14.411
-14.208
-13.971
-13.715
-13.45
-13.181
-12.899
-12.591
-12.238
-11.816
-11.315
-10.729
-10.047
-9.26
-8.352
-7.296
-6.067
-4.63
-2.943
-0.975
1.3
3.896
6.809
10.027
13.534
17.308
21.341
25.63
30.159
34.91
39.857
44.963
50.189
55.483
60.78
66.008
71.109
76.031
80.743
85.224
89.448
93.395
97.027
100.312
103.228
105.761
107.905
109.659
111.03
112.037
112.72
113.134
113.321
113.315
113.132
112.784
112.291
111.678
110.98
110.226
109.441
108.647
107.87
107.138
106.473
105.885
105.365
104.894
104.463
104.076
103.749
103.503
103.349
103.288
103.322
103.456
103.695
104.031
104.446
104.91
105.393
105.879
106.364
106.843
107.306
107.726
108.062
108.277
108.342
108.239
107.969
107.519
106.874
106.034
105.005
103.812
102.515
101.155
99.739
98.347
97.108
96.239
96.082
96.961
99.099
102.666
107.754
114.269
121.993
130.494
139.059
146.936
153.449
158.2
161.153
162.677
163.447
164.337
166.536
171.519
180.825
195.488
215.893
241.566
271.337
303.905
337.457
369.292
396.188
415.053
423.22
419.124
401.945
370.782
325.543
267.52
199.169
123.831
45.156
-33.741
-109.594
-178.408
-236.628
-281.568
-311.73
-326.955
-327.568
-314.053
-288.051
-252.467
-210.622
-166.074
-121.808
-80.054
-43.216
-13.52
8.02
21.465
27.654
28.121
24.251
17.291
9.081
1.53
-4.199
-7.548
-8.547
-7.709
-5.466
-2.244
1.122
3.705
4.968
4.716
3.077
0.416
-2.96
-6.771
-10.6
-13.983
-16.625
-18.389
-19.279
-19.407
-18.864
-17.709
-16.033
-13.957
-11.588
-9.014
-6.307
-3.503
-0.65
2.182
4.925
7.513
9.894
12.037
13.927
15.545
16.883
17.93
18.666
19.08
19.174
18.942
18.387
17.5
16.257
14.644
12.655
10.288
7.546
4.427
0.914
-2.995
-7.301
-11.985
-17.002
-22.32
-27.909
-33.738
-39.779
-45.985
-52.291
-58.638
-64.973
-71.239
-77.388
-83.359
-89.073
-94.468
-99.488
-104.101
-108.302
-112.078
-115.413
-118.299
-120.726
-122.704
-124.259
-125.414
-126.189
-126.616
-126.728
-126.581
-126.246
-125.786
-125.254
-124.694
-124.126
-123.577
-123.077
-122.647
-122.305
-122.061
-121.917
-121.879
-121.957
-122.151
-122.456
-122.852
-123.308
-123.799
-124.31
-124.827
-125.348
-125.869
-126.388
-126.909
-127.44
-127.989
-128.567
-129.18
-129.831
-130.526
-131.276
-132.094
-132.996
-133.997
-135.104
-136.325
-137.662
-139.117
-140.69
-142.376
-144.166
-146.051
-148.022
-150.07
-152.188
-154.368
-156.599
-158.871
-161.172
-163.494
-165.826
-168.16
-170.486
-172.793
-175.073
-177.315
-179.511
-181.652
-183.729
-185.732
-187.652
-189.481
-191.212
-192.84
-194.357
-195.757
-197.033
-198.177
-199.184
-200.051
-200.775
-201.358
-201.803
-202.118
-202.313
-202.403
-202.397
-202.302
-202.122
-201.856
-201.503
-201.065
-200.538
-199.926
-199.232
-198.457
-197.606
-196.68
-195.676
-194.585
-193.389
-192.066
-190.606
-189.006
-187.269
-185.412
-183.454
-181.419
-179.342
-177.248
-175.16
-173.098
-171.074
-169.101
-167.201
-165.398
-163.724
-162.22
-160.91
-159.81
-158.928
-158.254
-157.772
-157.452
-157.249
-157.125
-157.05
-156.994
-156.939
-156.868
-156.756
-156.575
-156.297
-155.882
-155.3
-154.529
-153.546
-152.343
-150.923
-149.293
-147.478
-145.499
-143.368
-141.095
-138.684
-136.134
-133.45
-130.636
-127.695
-124.635
-121.464
-118.187
-114.815
-111.349
-107.787
-104.126
-100.355
-96.463
-92.446
-88.303
-84.033
-79.639
-75.127
-70.499
-65.764
-60.929
-55.997
-50.974
-45.862
-40.665
-35.389
-30.041
-24.626
-19.153
-13.627
-8.054
-2.44
3.213
8.898
14.614
20.358
26.129
31.924
37.739
43.572
49.42
55.281
61.151
67.026
72.905
78.784
84.661
90.533
96.397
102.251
108.091
113.913
119.715
125.492
131.24
136.955
142.631
148.264
153.848
159.379
164.849
170.253
175.585
180.839
186.006
191.081
196.057
200.924
205.677
210.307
214.805
219.164
223.375
227.43
231.319
235.037
238.573
241.921
245.074
248.025
250.768
253.298
255.608
257.695
259.552
261.177
262.566
263.715
264.623
265.287
265.707
265.883
265.817
265.509
264.96
264.17
263.141
261.879
260.391
258.686
256.778
254.68
252.412
249.997
247.457
244.817
242.098
239.318
236.498
233.659
230.825
228.023
225.275
222.597
219.996
217.477
215.036
212.667
210.352
208.062
205.768
203.447
201.081
198.666
196.196
193.661
191.051
188.348
185.547
182.658
179.701
176.709
173.723
170.797
168.002
165.428
163.169
161.307
159.906
159.014
158.673
158.927
159.826
161.422
163.751
166.826
170.645
175.188
180.42
186.283
192.689
199.52
206.644
213.934
221.282
228.588
235.757
242.686
249.262
255.362
260.868
265.678
269.689
272.819
274.99
276.145
276.259
275.339
273.406
270.486
266.595
261.744
255.945
249.215
241.584
233.11
223.857
213.899
203.324
192.211
180.651
168.736
156.538
144.115
131.519
118.796
106.007
93.234
80.56
68.078
55.871
43.993
32.488
21.384
10.695
0.439
-9.383
-18.784
-27.765
-36.319
-44.443
-52.123
-59.379
-66.263
-72.833
-79.165
-85.329
-91.37
-97.337
-103.27
-109.194
-115.138
-121.117
-127.131
-133.202
-139.356
-145.616
-152.012
-158.539
-165.154
-171.81
-178.44
-184.975
-191.356
-197.509
-203.357
-208.84
-213.906
-218.509
-222.614
-226.164
-229.102
-231.378
-232.937
-233.754
-233.827
-233.163
-231.794
-229.77
-227.151
-224.019
-220.473
-216.595
-212.469
-208.169
-203.764
-199.335
-194.958
-190.707
-186.653
-182.864
-179.399
-176.311
-173.627
-171.354
-169.482
-167.982
-166.808
-165.919
-165.265
-164.806
-164.514
-164.356
-164.315
-164.371
-164.502
-164.684
-164.887
-165.088
-165.275
-165.451
-165.626
-165.819
-166.055
-166.364
-166.783
-167.337
-168.037
-168.882
-169.865
-170.977
-172.209
-173.558
-175.021
-176.59
-178.256
-180
-181.804
-183.647
-185.509
-187.365
-189.197
-190.993
-192.757
-194.504
-196.254
-198.024
-199.835
-201.705
-203.653
-205.698
-207.866
-210.182
-212.684
-215.414
-218.405
-221.687
-225.262
-229.103
-233.192
-237.507
-242.027
-246.745
-251.612
-256.532
-261.442
-266.308
-271.04
-275.513
-279.457
-282.445
-284.208
-284.654
-283.755
-281.531
-277.996
-273.184
-267.474
-261.678
-256.429
-252.024
-248.458
-245.447
-242.855
-240.632
-238.272
-234.574
-228.25
-218.416
-204.732
-187.497
-167.052
-143.695
-118.356
-93.073
-70.636
-53.9
-45.493
-47.398
-61.272
-88.853
-131.077
-187.385
-255.854
-333.478
-416.515
-501.282
-584.031
-660.304
-725.972
-777.878
-813.853
-833.29
-836.692
-824.75
-798.782
-761.296
-715.284
-664.018
-610.79
-557.865
-507.11
-460.646
-420.175
-386.73
-360.62
-341.194
-327.386
-318.481
-313.575
-311.336
-310.386
-309.3
-307.205
-304.029
-299.962
-295.177
-289.984
-284.811
-280.229
-276.983
-275.422
-275.443
-276.785
-279.056
-281.861
-284.852
-287.589
-289.562
-290.455
-290.126
-288.524
-285.705
-281.708
-276.547
-270.294
-263.055
-254.923
-245.979
-236.29
-225.905
-214.905
-203.388
-191.451
-179.189
-166.664
-153.923
-141.01
-127.961
-114.809
-101.578
-88.271
-74.89
-61.448
-47.96
-34.453
-20.956
-7.486
5.94
19.31
32.608
45.798
58.837
71.683
84.284
96.593
108.56
120.124
131.236
141.858
151.963
161.542
170.591
179.104
187.081
194.526
201.443
207.854
213.788
219.277
224.368
229.102
233.517
237.66
241.566
245.265
248.781
252.128
255.313
258.346
261.234
263.983
266.598
269.077
271.408
273.574
275.553
277.326
278.877
280.195
281.268
282.083
282.63
282.898
282.88
282.567
281.947
281.006
279.734
278.129
276.196
273.948
271.403
268.579
265.496
262.171
258.625
254.895
251.021
247.055
243.059
239.089
235.207
231.482
227.972
224.735
221.816
219.246
217.047
215.239
213.833
212.847
212.284
212.125
212.336
212.859
213.621
214.554
215.583
216.623
217.591
218.4
218.974
219.259
219.208
218.776
217.919
216.583
214.731
212.345
209.427
205.999
202.098
197.752
193.001
187.898
182.5
176.875
171.076
165.137
159.088
152.958
146.785
140.615
134.484
128.414
122.417
116.495
110.649
104.882
99.19
93.555
87.958
82.372
76.781
71.184
65.581
59.973
54.354
48.715
43.054
37.375
31.683
25.984
20.28
14.573
8.871
3.187
-2.464
-8.067
-13.613
-19.096
-24.514
-29.864
-35.147
-40.361
-45.51
-50.6
-55.637
-60.625
-65.57
-70.477
-75.353
-80.205
-85.044
-89.88
-94.724
-99.586
-104.474
-109.395
-114.35
-119.341
-124.366
-129.423
-134.502
-139.595
-144.691
-149.787
-154.876
-159.958
-165.027
-170.075
-175.094
-180.075
-185.013
-189.909
-194.765
-199.582
-204.368
-209.139
-213.912
-218.715
-223.563
-228.459
-233.402
-238.383
-243.398
-248.445
-253.516
-258.596
-263.665
-268.701
-273.678
-278.569
-283.331
-287.905
-292.229
-296.232
-299.858
-303.07
-305.836
-308.127
-309.912
-311.16
-311.85
-311.972
-311.521
-310.491
-308.88
-306.692
-303.958
-300.733
-297.078
-293.061
-288.743
-284.175
-279.409
-274.505
-269.524
-264.531
-259.592
-254.759
-250.087
-245.634
-241.459
-237.61
-234.115
-230.98
-228.2
-225.767
-223.666
-221.883
-220.398
-219.181
-218.194
-217.393
-216.726
-216.145
-215.605
-215.055
-214.439
-213.706
-212.81
-211.72
-210.418
-208.893
-207.141
-205.164
-202.967
-200.564
-197.975
-195.231
-192.372
-189.425
-186.415
-183.364
-180.303
-177.264
-174.289
-171.407
-168.627
-165.948
-163.358
-160.842
-158.382
-155.946
-153.492
-150.967
-148.316
-145.501
-142.491
-139.259
-135.772
-131.986
-127.847
-123.316
-118.374
-113.011
-107.23
-101.036
-94.443
-87.483
-80.201
-72.66
-64.914
-57.003
-48.959
-40.815
-32.608
-24.387
-16.207
-8.11
-0.13
7.705
15.373
22.851
30.125
37.194
44.071
50.779
57.33
63.726
69.965
76.041
81.954
87.705
93.299
98.73
103.993
109.082
113.991
118.718
123.252
127.579
131.677
135.525
139.105
142.408
145.427
148.159
150.599
152.744
154.594
156.154
157.427
158.414
159.118
159.539
159.681
159.551
159.159
158.513
157.624
156.498
155.141
153.563
151.773
149.782
147.601
145.241
142.716
140.045
137.252
134.359
131.388
128.361
125.293
122.206
119.116
116.038
112.987
109.972
106.994
104.051
101.142
98.253
95.377
92.497
89.583
86.617
83.577
80.447
77.215
73.87
70.403
66.816
63.119
59.331
55.489
51.638
47.828
44.126
40.591
37.289
34.302
31.699
29.545
27.904
26.823
26.35
26.53
27.385
28.925
31.139
33.993
37.433
41.394
45.788
50.53
55.531
60.684
65.89
71.052
76.072
80.873
85.375
89.498
93.18
96.377
99.058
101.22
102.877
104.054
104.8
105.16
105.187
104.943
104.493
103.903
103.238
102.547
101.881
101.292
100.827
100.521
100.4
100.474
100.741
101.197
101.825
102.61
103.533
104.574
105.705
106.901
108.137
109.396
110.662
111.923
113.164
114.377
115.558
116.717
117.873
119.048
120.265
121.545
122.907
124.366
125.94
127.648
129.506
131.528
133.721
136.084
138.616
141.309
144.147
147.091
150.078
153.028
155.864
158.52
160.947
163.101
164.922
166.346
167.304
167.73
167.602
166.898
165.58
163.678
161.278
158.569
155.883
153.577
151.941
151.2
151.507
152.822
154.99
157.706
160.411
162.497
163.388
162.719
160.446
156.952
152.925
149.198
146.892
147.364
152.097
162.29
178.563
200.678
227.69
258.361
290.884
322.646
350.392
370.625
380.202
376.986
359.546
326.859
278.829
216.615
142.796
61.193
-24.005
-108.896
-189.348
-261.146
-320.531
-364.451
-391.422
-401.433
-395.028
-373.261
-338.269
-292.973
-240.919
-186.018
-131.265
-79.037
-31.769
8.568
40.789
64.592
80.809
90.974
96.304
98.104
98.06
97.762
98.7
101.739
106.823
113.505
121.35
129.796
138.15
145.667
151.494
155.183
156.787
156.514
154.701
151.699
147.806
143.399
138.909
134.596
130.575
126.888
123.489
120.357
117.491
114.835
112.322
109.898
107.515
105.156
102.815
100.477
98.137
95.796
93.461
91.145
88.847
86.56
84.28
82
79.729
77.484
75.28
73.134
71.07
69.101
67.245
65.504
63.859
62.292
60.779
59.302
57.862
56.461
55.105
53.804
52.57
51.411
50.344
49.378
48.518
47.774
47.155
46.678
46.375
46.274
46.398
46.766
47.386
48.262
49.397
50.784
52.412
54.27
56.34
58.608
61.064
63.694
66.481
69.405
72.443
75.569
78.765
82.011
85.29
88.586
91.882
95.167
98.43
101.662
104.853
107.993
111.068
114.068
116.982
119.803
122.52
125.126
127.611
129.967
132.187
134.263
136.189
137.958
139.565
141.004
142.27
143.362
144.276
145.012
145.567
145.942
146.137
146.154
145.992
145.654
145.143
144.46
143.611
142.598
141.427
140.102
138.631
137.019
135.274
133.402
131.413
129.313
127.111
124.815
122.433
119.974
117.446
114.856
112.213
109.526
106.802
104.052
101.281
98.5
95.716
92.938
90.173
87.427
84.707
82.02
79.371
76.77
74.22
71.726
69.288
66.905
64.575
62.292
60.048
57.832
55.632
53.44
51.245
49.042
46.824
44.588
42.328
40.035
37.707
35.346
32.955
30.545
28.126
25.707
23.307
20.944
18.64
16.409
14.259
12.189
10.193
8.255
6.361
4.496
2.639
0.759
-1.179
-3.221
-5.408
-7.773
-10.361
-13.221
-16.406
-19.964
-23.928
-28.314
-33.126
-38.354
-43.986
-50.011
-56.404
-63.131
-70.15
-77.403
-84.849
-92.456
-100.179
-107.958
-115.726
-123.406
-130.939
-138.289
-145.425
-152.328
-158.979
-165.354
-171.444
-177.249
-182.773
-188.026
-193.001
-197.675
-202.041
-206.11
-209.905
-213.466
-216.818
-219.967
-222.921
-225.684
-228.261
-230.662
-232.887
-234.924
-236.77
-238.419
-239.883
-241.187
-242.344
-243.352
-244.204
-244.877
-245.359
-245.65
-245.746
-245.642
-245.334
-244.818
-244.1
-243.19
-242.097
-240.823
-239.364
-237.712
-235.863
-233.82
-231.591
-229.188
-226.619
-223.888
-221.004
-217.975
-214.808
-211.508
-208.078
-204.513
-200.813
-196.982
-193.022
-188.938
-184.733
-180.408
-175.965
-171.405
-166.729
-161.941
-157.04
-152.029
-146.91
-141.686
-136.363
-130.944
-125.438
-119.848
-114.18
-108.44
-102.635
-96.769
-90.85
-84.881
-78.87
-72.821
-66.74
-60.634
-54.508
-48.366
-42.216
-36.06
-29.905
-23.755
-17.614
-11.484
-5.371
0.724
6.798
12.848
18.874
24.875
30.849
36.797
42.719
48.617
54.491
60.345
66.179
71.998
77.804
83.601
89.393
95.182
100.973
106.769
112.575
118.393
124.227
130.08
135.955
141.854
147.78
153.733
159.715
165.726
171.764
177.829
183.917
190.026
196.15
202.284
208.424
214.562
220.692
226.805
232.893
238.948
244.96
250.919
256.813
262.631
268.36
273.987
279.498
284.879
290.116
295.192
300.095
304.809
309.322
313.619
317.685
321.504
325.063
328.351
331.359
334.082
336.514
338.652
340.499
342.06
343.339
344.341
345.07
345.527
345.715
345.636
345.294
344.697
343.844
342.735
341.363
339.722
337.804
335.603
333.107
330.297
327.164
323.703
319.914
315.81
311.404
306.716
301.769
296.589
291.21
285.679
280.045
274.366
268.697
263.091
257.606
252.307
247.249
242.477
238.027
233.922
230.177
226.801
223.795
221.153
218.857
216.877
215.175
213.703
212.417
211.277
210.237
209.248
208.267
207.258
206.191
205.048
203.813
202.474
201.021
199.451
197.769
195.983
194.112
192.175
190.189
188.167
186.12
184.06
181.997
179.933
177.868
175.794
173.705
171.597
169.464
167.297
165.087
162.824
160.494
158.086
155.591
153.001
150.308
147.507
144.599
141.591
138.49
135.306
132.05
128.731
125.361
121.955
118.524
115.073
111.611
108.141
104.675
101.229
97.818
94.456
91.154
87.913
84.739
81.645
78.635
75.713
72.88
70.132
67.477
64.941
62.544
60.309
58.249
56.367
54.67
53.164
51.86
50.769
49.9
49.25
48.826
48.641
48.706
49.042
49.644
50.489
51.554
52.82
54.271
55.9
57.694
59.633
61.701
63.882
66.162
68.533
70.978
73.469
75.98
78.479
80.951
83.398
85.817
88.201
90.543
92.829
95.051
97.207
99.287
101.279
103.17
104.945
106.597
108.125
109.529
110.81
111.965
112.984
113.859
114.588
115.168
115.599
115.878
116.002
115.971
115.792
115.473
115.026
114.458
113.777
112.99
112.102
111.123
110.063
108.93
107.732
106.479
105.181
103.856
102.529
101.219
99.947
98.725
97.562
96.466
95.443
94.496
93.635
92.862
92.171
91.561
91.03
90.564
90.152
89.76
89.322
88.782
88.078
87.162
86.018
84.617
82.925
80.908
78.517
75.718
72.52
68.915
64.86
60.389
55.597
50.695
46.064
42.062
38.951
36.901
36.043
36.321
37.453
38.959
40.034
39.806
37.657
33.32
26.78
18.479
9.366
0.575
-6.25
-9.16
-6.642
2.279
18.018
40.036
67.028
97.32
128.261
156.402
178.421
191.103
191.783
178.901
151.447
109.055
52.797
-15.049
-91.389
-172.289
-253.863
-332.561
-404.429
-465.84
-514.11
-547.336
-564.973
-567.574
-555.835
-530.949
-495.208
-451.314
-402.273
-351.228
-300.404
-251.685
-207.251
-168.884
-137.705
-114.133
-97.604
-87.073
-81.788
-80.756
-82.522
-85.568
-88.332
-89.817
-89.853
-88.572
-86.13
-82.846
-79.179
-75.749
-73.346
-72.376
-72.792
-74.37
-76.754
-79.583
-82.56
-85.325
-87.471
-88.777
-89.187
-88.74
-87.58
-85.834
-83.602
-81.01
-78.201
-75.295
-72.403
-69.628
-67.059
-64.786
-62.896
-61.442
-60.455
-59.946
-59.917
-60.355
-61.238
-62.536
-64.208
-66.222
-68.555
-71.17
-74.022
-77.049
-80.172
-83.326
-86.455
-89.518
-92.489
-95.34
-98.043
-100.579
-102.932
-105.087
-107.032
-108.743
-110.178
-111.315
-112.151
-112.695
-112.982
-113.036
-112.869
-112.495
-111.922
-111.163
-110.234
-109.144
-107.898
-106.504
-104.977
-103.339
-101.63
-99.873
-98.079
-96.249
-94.369
-92.433
-90.443
-88.4
-86.304
-84.156
-81.957
-79.715
-77.443
-75.149
-72.839
-70.512
-68.162
-65.789
-63.399
-61.003
-58.619
-56.26
-53.932
-51.647
-49.411
-47.229
-45.11
-43.058
-41.076
-39.171
-37.351
-35.625
-34.008
-32.507
-31.126
-29.865
-28.715
-27.667
-26.718
-25.867
-25.116
-24.472
-23.931
-23.489
-23.144
-22.884
-22.7
-22.58
-22.501
-22.451
-22.427
-22.435
-22.499
-22.646
-22.895
-23.259
-23.746
-24.36
-25.112
-26.015
-27.077
-28.315
-29.743
-31.382
-33.265
-35.414
-37.835
-40.519
-43.439
-46.553
-49.832
-53.252
-56.787
-60.421
-64.13
-67.891
-71.689
-75.505
-79.316
-83.093
-86.794
-90.381
-93.835
-97.144
-100.311
-103.348
-106.259
-109.047
-111.715
-114.262
-116.683
-118.976
-121.129
-123.129
-124.97
-126.649
-128.17
-129.539
-130.753
-131.805
-132.685
-133.38
-133.879
-134.173
-134.254
-134.116
-133.756
-133.175
-132.378
-131.373
-130.167
-128.766
-127.175
-125.4
-123.447
-121.327
-119.049
-116.625
-114.067
-111.388
-108.601
-105.72
-102.76
-99.733
-96.652
-93.529
-90.377
-87.211
-84.042
-80.886
-77.756
-74.665
-71.629
-68.661
-65.774
-62.982
-60.296
-57.729
-55.29
-52.99
-50.839
-48.844
-47.013
-45.353
-43.87
-42.57
-41.455
-40.531
-39.799
-39.262
-38.921
-38.775
-38.825
-39.069
-39.505
-40.131
-40.943
-41.938
-43.11
-44.456
-45.968
-47.641
-49.467
-51.44
-53.55
-55.789
-58.148
-60.619
-63.19
-65.855
-68.602
-71.423
-74.309
-77.25
-80.239
-83.267
-86.326
-89.407
-92.504
-95.61
-98.718
-101.822
-104.916
-107.995
-111.055
-114.091
-117.098
-120.074
-123.015
-125.919
-128.782
-131.603
-134.38
-137.113
-139.8
-142.442
-145.039
-147.592
-150.102
-152.57
-154.997
-157.386
-159.739
-162.057
-164.343
-166.599
-168.828
-171.031
-173.211
-175.37
-177.51
-179.634
-181.743
-183.838
-185.921
-187.994
-190.057
-192.111
-194.156
-196.194
-198.226
-200.251
-202.27
-204.284
-206.293
-208.297
-210.296
-212.29
-214.279
-216.26
-218.235
-220.202
-222.161
-224.111
-226.05
-227.978
-229.893
-231.794
-233.68
-235.549
-237.399
-239.228
-241.033
-242.812
-244.562
-246.282
-247.968
-249.618
-251.232
-252.806
-254.339
-255.828
-257.273
-258.67
-260.017
-261.309
-262.543
-263.713
-264.816
-265.846
-266.799
-267.673
-268.461
-269.162
-269.771
-270.286
-270.702
-271.014
-271.214
-271.296
-271.258
-271.098
-270.82
-270.427
-269.923
-269.314
-268.606
-267.804
-266.91
-265.921
-264.829
-263.624
-262.302
-260.863
-259.313
-257.659
-255.9
-254.032
-252.053
-249.953
-247.726
-245.363
-242.846
-240.166
-237.327
-234.341
-231.238
-228.056
-224.819
-221.549
-218.262
-214.969
-211.69
-208.447
-205.257
-202.144
-199.132
-196.25
-193.541
-191.036
-188.748
-186.677
-184.802
-183.091
-181.521
-180.077
-178.741
-177.504
-176.35
-175.264
-174.237
-173.258
-172.31
-171.368
-170.397
-169.363
-168.252
-167.056
-165.782
-164.447
-163.058
-161.618
-160.134
-158.605
-157.03
-155.405
-153.72
-151.962
-150.124
-148.204
-146.207
-144.137
-141.989
-139.758
-137.431
-134.992
-132.43
-129.734
-126.892
-123.896
-120.742
-117.426
-113.952
-110.324
-106.547
-102.624
-98.557
-94.348
-90.002
-85.527
-80.93
-76.22
-71.407
-66.501
-61.516
-56.464
-51.357
-46.207
-41.027
-35.828
-30.621
-25.42
-20.237
-15.085
-9.977
-4.927
0.054
4.95
9.751
14.443
19.016
23.457
27.758
31.909
35.9
39.724
43.375
46.846
50.131
53.227
56.129
58.834
61.342
63.65
65.758
67.669
69.385
70.907
72.243
73.395
74.372
75.18
75.828
76.323
76.677
76.897
76.995
76.981
76.865
76.66
76.376
76.025
75.618
75.169
74.688
74.19
73.687
73.19
72.71
72.258
71.842
71.475
71.162
70.912
70.731
70.626
70.605
70.676
70.846
71.115
71.481
71.937
72.479
73.101
73.795
74.549
75.356
76.209
77.106
78.054
79.053
80.096
81.174
82.272
83.377
84.488
85.601
86.716
87.833
88.95
90.073
91.215
92.378
93.554
94.721
95.84
96.885
97.839
98.692
99.441
100.082
100.6
100.994
101.262
101.401
101.409
101.273
100.968
100.491
99.856
99.09
98.246
97.357
96.445
95.533
94.633
93.753
92.898
92.053
91.186
90.278
89.302
88.242
87.087
85.793
84.309
82.579
80.545
78.181
75.453
72.314
68.724
64.649
60.106
55.183
49.965
44.492
38.863
33.223
27.838
23.154
19.478
16.933
15.596
15.527
16.788
19.415
23.096
27.033
30.598
33.532
35.86
37.885
39.792
41.651
44.045
48.378
56.069
68.05
84.633
105.311
129.525
156.885
186.244
215.137
240.464
259.142
268.531
267.133
253.644
226.454
184.922
130.087
64.392
-8.651
-85.21
-162.207
-236.204
-302.818
-358.129
-399.311
-424.978
-435.312
-431.083
-412.717
-381.568
-340.518
-292.984
-242.477
-191.8
-142.765
-97.172
-57.348
-25.021
-0.61
16.431
27.342
33.222
34.837
33.292
30.34
27.733
26.487
26.859
28.528
31.124
34.41
38.019
41.251
43.271
43.626
42.305
39.616
36.007
31.868
27.542
23.441
20.029
17.61
16.328
16.217
17.196
19.188
22.148
25.995
30.616
35.907
41.759
48.042
54.64
61.41
68.196
74.877
81.337
87.46
93.153
98.323
102.902
106.843
110.102
112.624
114.375
115.332
115.493
114.89
113.56
111.549
108.925
105.755
102.122
98.121
93.851
89.397
84.844
80.27
75.766
71.442
67.391
63.693
60.419
57.623
55.366
53.703
52.665
52.262
52.485
53.307
54.698
56.634
59.081
62
65.334
69.012
72.976
77.177
81.57
86.107
90.725
95.366
99.989
104.572
109.105
113.586
118.017
122.394
126.724
131.026
135.327
139.667
144.07
148.556
153.141
157.849
162.709
167.749
172.976
178.385
183.962
189.687
195.534
201.478
207.481
213.494
219.455
225.298
230.956
236.367
241.471
246.206
250.505
254.31
257.575
260.27
262.374
263.873
264.76
265.033
264.7
263.785
262.319
260.344
257.911
255.068
251.86
248.336
244.547
240.541
236.356
232.024
227.566
223.003
218.351
213.625
208.833
203.981
199.064
194.076
189.004
183.837
178.574
173.207
167.736
162.158
156.479
150.706
144.856
138.945
132.988
127.002
121.004
115.013
109.052
103.144
97.312
91.579
85.96
80.473
75.132
69.949
64.935
60.098
55.441
50.969
46.688
42.6
38.712
35.023
31.536
28.251
25.168
22.287
19.608
17.13
14.853
12.777
10.903
9.229
7.757
6.483
5.405
4.52
3.824
3.313
2.981
2.821
2.827
2.995
3.321
3.802
4.429
5.19
6.077
7.078
8.185
9.386
10.67
12.02
13.427
14.886
16.391
17.94
19.524
21.126
22.735
24.335
25.917
27.481
29.02
30.522
31.983
33.398
34.769
36.101
37.387
38.603
39.728
40.742
41.632
42.397
43.031
43.526
43.872
44.057
44.073
43.921
43.593
43.078
42.36
41.42
40.259
38.903
37.371
35.683
33.854
31.889
29.8
27.607
25.324
22.968
20.549
18.074
15.561
13.035
10.522
8.05
5.634
3.271
0.961
-1.292
-3.481
-5.596
-7.63
-9.583
-11.449
-13.215
-14.871
-16.405
-17.811
-19.088
-20.239
-21.265
-22.163
-22.922
-23.536
-24.003
-24.318
-24.481
-24.49
-24.341
-24.036
-23.581
-22.982
-22.245
-21.378
-20.382
-19.264
-18.03
-16.686
-15.241
-13.703
-12.081
-10.381
-8.614
-6.788
-4.914
-3.001
-1.056
0.913
2.897
4.89
6.883
8.869
10.84
12.791
14.714
16.603
18.452
20.256
22.01
23.71
25.352
26.933
28.45
29.899
31.281
32.592
33.832
35.001
36.097
37.122
38.075
38.958
39.772
40.518
41.199
41.818
42.376
42.878
43.326
43.725
44.078
44.389
44.663
44.904
45.117
45.305
45.475
45.63
45.775
45.915
46.056
46.201
46.356
46.524
46.712
46.923
47.162
47.432
47.738
48.083
48.471
48.905
49.389
49.924
50.514
51.159
51.862
52.624
53.445
54.326
55.266
56.264
57.321
58.433
59.6
60.819
62.086
63.4
64.757
66.152
67.582
69.043
70.528
72.034
73.554
75.084
76.616
78.144
79.663
81.166
82.645
84.095
85.508
86.878
88.198
89.461
90.663
91.795
92.853
93.831
94.724
95.527
96.236
96.845
97.353
97.755
98.049
98.232
98.302
98.259
98.099
97.824
97.432
96.924
96.3
95.561
94.709
93.744
92.671
91.491
90.208
88.825
87.345
85.773
84.114
82.372
80.551
78.656
76.693
74.666
72.581
70.443
68.257
66.028
63.762
61.464
59.137
56.789
54.423
52.045
49.66
47.272
44.887
42.51
40.147
37.802
35.481
33.189
30.931
28.713
26.539
24.414
22.344
20.333
18.386
16.508
14.703
12.976
11.331
9.774
8.308
6.938
5.668
4.504
3.448
2.507
1.682
0.979
0.401
-0.047
-0.364
-0.547
-0.592
-0.498
-0.264
0.111
0.628
1.285
2.081
3.016
4.086
5.288
6.619
8.075
9.65
11.341
13.14
15.042
17.039
19.124
21.288
23.523
25.819
28.166
30.552
32.965
35.395
37.829
40.254
42.657
45.025
47.346
49.608
51.798
53.904
55.912
57.812
59.591
61.237
62.74
64.087
65.27
66.277
67.101
67.734
68.168
68.398
68.415
68.211
67.781
67.124
66.238
65.125
63.79
62.238
60.484
58.543
56.432
54.168
51.766
49.238
46.601
43.872
41.068
38.205
35.298
32.354
29.381
26.385
23.368
20.324
17.245
14.109
10.905
7.628
4.274
0.849
-2.638
-6.18
-9.753
-13.328
-16.868
-20.322
-23.639
-26.767
-29.643
-32.194
-34.35
-36.025
-37.149
-37.672
-37.546
-36.742
-35.246
-33.048
-30.176
-26.681
-22.624
-18.084
-13.136
-7.855
-2.347
3.262
8.842
14.249
19.372
24.132
28.416
32.204
35.547
38.547
41.443
44.504
47.921
51.874
56.523
61.753
67.332
72.998
78.232
82.572
85.679
87.204
87.039
85.65
83.782
82.189
81.93
84.005
89.429
99.38
114.606
134.977
159.71
187.861
218.007
248.335
276.488
299.385
313.993
318.038
310.032
288.692
253.383
204.423
143.199
72.581
-3.713
-82.07
-159.031
-230.706
-293.423
-344.167
-380.641
-402.05
-408.723
-401.157
-380.373
-348.567
-308.469
-263.08
-215.619
-168.584
-124.018
-84.286
-51.357
-26.04
-8.381
2.271
7.167
7.401
4.143
-0.79
-5.582
-9.142
-10.949
-11.023
-9.798
-7.631
-4.929
-2.525
-1.35
-1.928
-4.433
-8.711
-14.37
-21.081
-28.546
-36.32
-43.902
-50.951
-57.266
-62.798
-67.629
-71.818
-75.41
-78.483
-81.137
-83.462
-85.545
-87.453
-89.233
-90.938
-92.633
-94.377
-96.233
-98.252
-100.474
-102.915
-105.574
-108.436
-111.474
-114.658
-117.952
-121.313
-124.691
-128.04
-131.315
-134.472
-137.476
-140.285
-142.86
-145.162
-147.159
-148.825
-150.146
-151.11
-151.708
-151.936
-151.793
-151.28
-150.404
-149.169
-147.581
-145.644
-143.363
-140.745
-137.801
-134.541
-130.975
-127.118
-122.979
-118.573
-113.914
-109.018
-103.899
-98.574
-93.06
-87.374
-81.537
-75.569
-69.491
-63.325
-57.094
-50.819
-44.523
-38.229
-31.958
-25.732
-19.572
-13.5
-7.535
-1.696
3.995
9.522
14.867
20.012
24.941
29.639
34.091
38.285
42.207
45.846
49.191
52.232
54.962
57.372
59.457
61.211
62.63
63.712
64.454
64.858
64.924
64.655
64.054
63.126
61.876
60.313
58.442
56.274
53.818
51.084
48.083
44.827
41.33
37.604
33.663
29.523
25.198
20.705
16.059
11.278
6.378
1.377
-3.707
-8.857
-14.053
-19.278
-24.513
-29.742
-34.947
-40.11
-45.216
-50.25
-55.198
-60.045
-64.779
-69.386
-73.853
-78.169
-82.322
-86.302
-90.099
-93.702
-97.104
-100.299
-103.282
-106.048
-108.593
-110.913
-113.003
-114.868
-116.51
-117.933
-119.145
-120.155
-120.974
-121.62
-122.107
-122.452
-122.669
-122.768
-122.758
-122.65
-122.455
-122.185
-121.85
-121.451
-120.984
-120.452
-119.851
-119.178
-118.427
-117.578
-116.62
-115.547
-114.356
-113.057
-111.662
-110.182
-108.632
-107.027
-105.389
-103.745
-102.134
-100.591
-99.15
-97.853
-96.74
-95.868
-95.286
-95.032
-95.134
-95.61
-96.464
-97.696
-99.306
-101.284
-103.616
-106.287
-109.259
-112.493
-115.949
-119.575
-123.318
-127.108
-130.872
-134.541
-138.057
-141.372
-144.449
-147.263
-149.778
-151.969
-153.811
-155.272
-156.344
-157.025
-157.314
-157.217
-156.75
-155.939
-154.823
-153.449
-151.851
-150.056
-148.083
-145.942
-143.652
-141.232
-138.702
-136.084
-133.395
-130.641
-127.835
-124.984
-122.09
-119.148
-116.142
-113.047
-109.847
-106.536
-103.11
-99.576
-95.935
-92.186
-88.333
-84.378
-80.326
-76.184
-71.957
-67.65
-63.274
-58.84
-54.369
-49.884
-45.406
-40.948
-36.524
-32.144
-27.818
-23.555
-19.362
-15.245
-11.208
-7.257
-3.397
0.365
4.025
7.58
11.03
14.376
17.616
20.752
23.783
26.71
29.531
32.248
34.86
37.365
39.764
42.058
44.248
46.336
48.325
50.217
52.014
53.721
55.341
56.877
58.333
59.711
61.017
62.253
63.423
64.531
65.581
66.576
67.521
68.417
69.269
70.08
70.853
71.59
72.295
72.97
73.618
74.241
74.841
75.42
75.979
76.521
77.047
77.556
78.051
78.532
78.998
79.449
79.884
80.304
80.706
81.089
81.451
81.791
82.105
82.392
82.648
82.872
83.058
83.205
83.308
83.364
83.369
83.319
83.207
83.029
82.78
82.456
82.05
81.557
80.974
80.295
79.516
78.634
77.643
76.541
75.321
73.98
72.515
70.92
69.192
67.327
65.321
63.174
60.882
58.445
55.862
53.131
50.249
47.217
44.039
40.718
37.259
33.671
29.962
26.145
22.238
18.252
14.204
10.106
5.968
1.806
-2.367
-6.54
-10.699
-14.836
-18.946
-23.028
-27.083
-31.119
-35.145
-39.17
-43.21
-47.272
-51.365
-55.492
-59.654
-63.853
-68.088
-72.354
-76.645
-80.953
-85.251
-89.509
-93.684
-97.719
-101.567
-105.177
-108.499
-111.49
-114.108
-116.314
-118.078
-119.371
-120.163
-120.428
-120.134
-119.259
-117.809
-115.804
-113.29
-110.331
-106.982
-103.298
-99.341
-95.171
-90.851
-86.445
-82
-77.574
-73.235
-69.06
-65.151
-61.594
-58.45
-55.759
-53.542
-51.799
-50.535
-49.754
-49.441
-49.581
-50.156
-51.148
-52.556
-54.369
-56.548
-59.033
-61.735
-64.568
-67.468
-70.373
-73.232
-76.005
-78.656
-81.157
-83.499
-85.673
-87.663
-89.45
-91.001
-92.286
-93.304
-94.067
-94.607
-94.963
-95.162
-95.239
-95.231
-95.16
-95.041
-94.873
-94.643
-94.341
-93.969
-93.53
-93.035
-92.496
-91.914
-91.288
-90.614
-89.884
-89.091
-88.227
-87.286
-86.285
-85.26
-84.263
-83.351
-82.575
-81.973
-81.571
-81.405
-81.514
-81.935
-82.707
-83.863
-85.41
-87.372
-89.794
-92.615
-95.694
-98.811
-101.604
-103.776
-105.109
-105.306
-104.135
-101.615
-97.904
-93.396
-88.771
-84.487
-80.92
-78.627
-77.844
-78.336
-79.582
-80.541
-79.855
-76.499
-69.329
-56.894
-38.308
-13.374
17.39
52.488
89.996
127.956
163.693
193.854
215.252
225.117
221.662
204.156
172.312
126.472
68.223
0.247
-73.922
-150.358
-225.712
-296.87
-360.537
-413.891
-454.86
-482.15
-495.719
-496.224
-484.123
-460.478
-427.296
-386.89
-341.91
-295.104
-248.561
-204.193
-164.335
-130.791
-104.354
-85.144
-72.504
-65.273
-62.415
-62.692
-64.274
-65.451
-65.18
-62.962
-58.868
-53.328
-46.723
-39.54
-32.617
-26.809
-22.587
-20.072
-19.069
-19.185
-20.078
-21.422
-22.778
-23.689
-23.852
-23.123
-21.496
-19.066
-15.916
-12.105
-7.723
-2.88
2.325
7.798
13.458
19.248
25.098
30.927
36.66
42.22
47.547
52.605
57.378
61.861
66.065
70.003
73.693
77.162
80.441
83.563
86.559
89.459
92.289
95.078
97.856
100.653
103.493
106.393
109.363
112.407
115.528
118.725
121.998
125.342
128.75
132.219
135.745
139.326
142.961
146.646
150.377
154.15
157.961
161.806
165.683
169.588
173.518
177.469
181.438
185.42
189.414
193.413
197.412
201.405
205.385
209.345
213.279
217.178
221.035
224.842
228.589
232.27
235.877
239.401
242.835
246.172
249.402
252.521
255.52
258.392
261.13
263.727
266.174
268.465
270.591
272.546
274.321
275.91
277.306
278.503
279.498
280.284
280.855
281.206
281.333
281.234
280.91
280.362
279.595
278.613
277.427
276.047
274.487
272.756
270.866
268.824
266.637
264.314
261.862
259.291
256.606
253.807
250.891
247.852
244.686
241.385
237.937
234.328
230.546
226.585
222.447
218.135
213.659
209.034
204.278
199.411
194.464
189.474
184.485
179.551
174.724
170.056
165.601
161.416
157.549
154.041
150.921
148.214
145.937
144.096
142.688
141.71
141.141
140.955
141.12
141.576
142.269
143.151
144.165
145.265
146.407
147.548
148.658
149.712
150.685
151.565
152.343
153.008
153.559
153.997
154.328
154.585
154.797
154.98
155.157
155.34
155.536
155.758
156.01
156.288
156.59
156.91
157.239
157.579
157.924
158.269
158.61
158.924
159.192
159.402
159.543
159.61
159.602
159.512
159.339
159.091
158.774
158.392
157.955
157.462
156.916
156.319
155.672
154.986
154.269
153.529
152.772
152.005
151.236
150.471
149.721
148.989
148.281
147.602
146.957
146.353
145.799
145.302
144.871
144.514
144.233
144.031
143.908
143.862
143.89
143.983
144.131
144.322
144.547
144.798
145.069
145.355
145.65
145.949
146.245
146.534
146.819
147.105
147.4
147.712
148.05
148.428
148.866
149.378
149.973
150.655
151.418
152.252
153.14
154.064
155.001
155.92
156.781
157.535
158.132
158.52
158.651
158.474
157.931
156.971
155.553
153.646
151.234
148.306
144.862
140.907
136.456
131.535
126.183
120.447
114.383
108.045
101.481
94.746
87.897
80.985
74.058
67.155
60.302
53.526
46.847
40.28
33.839
27.525
21.336
15.261
9.285
3.399
-2.402
-8.125
-13.774
-19.353
-24.862
-30.297
-35.645
-40.897
-46.043
-51.074
-55.979
-60.744
-65.353
-69.79
-74.039
-78.087
-81.926
-85.548
-88.949
-92.129
-95.087
-97.827
-100.358
-102.686
-104.819
-106.764
-108.53
-110.127
-111.565
-112.855
-114.01
-115.04
-115.957
-116.771
-117.494
-118.134
-118.702
-119.207
-119.657
-120.061
-120.427
-120.766
-121.086
-121.395
-121.701
-122.013
-122.337
-122.68
-123.049
-123.447
-123.88
-124.352
-124.864
-125.421
-126.023
-126.671
-127.367
-128.11
-128.9
-129.736
-130.615
-131.537
-132.499
-133.498
-134.534
-135.602
-136.701
-137.828
-138.98
-140.156
-141.353
-142.568
-143.798
-145.042
-146.297
-147.562
-148.832
-150.107
-151.385
-152.664
-153.943
-155.22
-156.496
-157.768
-159.037
-160.304
-161.568
-162.831
-164.094
-165.358
-166.625
-167.897
-169.177
-170.466
-171.768
-173.084
-174.419
-175.773
-177.151
-178.552
-179.981
-181.438
-182.926
-184.446
-185.998
-187.585
-189.207
-190.865
-192.558
-194.289
-196.055
-197.858
-199.696
-201.568
-203.474
-205.412
-207.379
-209.374
-211.394
-213.437
-215.497
-217.573
-219.658
-221.749
-223.841
-225.927
-228.003
-230.062
-232.099
-234.108
-236.082
-238.017
-239.905
-241.742
-243.522
-245.24
-246.891
-248.47
-249.972
-251.394
-252.731
-253.979
-255.136
-256.199
-257.165
-258.031
-258.797
-259.46
-260.018
-260.472
-260.822
-261.067
-261.21
-261.25
-261.192
-261.037
-260.79
-260.453
-260.033
-259.533
-258.958
-258.315
-257.609
-256.846
-256.032
-255.174
-254.278
-253.351
-252.398
-251.426
-250.441
-249.45
-248.457
-247.47
-246.492
-245.53
-244.59
-243.676
-242.794
-241.95
-241.149
-240.396
-239.695
-239.051
-238.466
-237.944
-237.486
-237.093
-236.767
-236.508
-236.315
-236.189
-236.128
-236.132
-236.197
-236.322
-236.503
-236.735
-237.015
-237.337
-237.696
-238.088
-238.508
-238.952
-239.415
-239.889
-240.364
-240.832
-241.281
-241.696
-242.062
-242.358
-242.57
-242.679
-242.67
-242.528
-242.233
-241.766
-241.111
-240.25
-239.174
-237.878
-236.357
-234.61
-232.645
-230.476
-228.13
-225.645
-223.051
-220.384
-217.681
-214.984
-212.358
-209.86
-207.541
-205.441
-203.573
-201.949
-200.601
-199.557
-198.838
-198.445
-198.314
-198.375
-198.615
-198.947
-199.219
-199.2
-198.471
-196.644
-193.564
-189.124
-183.237
-176.008
-167.58
-158.268
-148.893
-140.283
-132.802
-126.598
-121.533
-117.074
-112.756
-107.93
-101.151
-90.807
-75.88
-55.76
-30.52
-1.033
31.861
66.981
101.945
133.744
159.509
176.445
182.467
176.412
157.018
123.585
76.916
18.889
-47.756
-119.471
-192.859
-264.685
-330.927
-387.739
-432.209
-462.13
-476.581
-475.716
-459.798
-429.761
-388.045
-337.677
-281.9
-224.172
-167.21
-113.335
-65.249
-25.05
6.55
29.677
45.238
54.74
59.478
60.884
61.073
62.004
64.805
69.976
77.377
86.446
96.718
107.63
118.204
127.446
134.79
140.05
143.399
145.229
145.872
145.639
144.967
144.31
143.956
144.04
144.568
145.458
146.649
148.109
149.781
151.592
153.492
155.437
157.389
159.325
161.204
162.975
164.601
166.055
167.322
168.403
169.31
170.045
170.624
171.061
171.362
171.532
171.569
171.477
171.274
170.987
170.641
170.264
169.882
169.51
169.167
168.859
168.586
168.353
168.162
168.021
167.949
167.969
168.111
168.401
168.857
169.493
170.315
171.331
172.542
173.953
175.563
177.374
179.393
181.625
184.074
186.736
189.604
192.664
195.899
199.291
202.823
206.479
210.246
214.11
218.061
222.087
226.179
230.326
234.516
238.734
242.966
247.198
251.418
255.614
259.777
263.895
267.958
271.956
275.878
279.716
283.456
287.088
290.601
293.984
297.227
300.32
303.255
306.026
308.623
311.043
313.278
315.325
317.178
318.834
320.289
321.542
322.589
323.43
324.064
324.49
324.708
324.721
324.529
324.135
323.541
322.751
321.77
320.601
319.249
317.721
316.021
314.158
312.136
309.965
307.651
305.203
302.63
299.94
297.143
294.247
291.263
288.199
285.064
281.869
278.622
275.333
272.01
268.663
265.3
261.931
258.564
255.207
251.868
248.556
245.277
242.038
238.847
235.71
232.633
229.62
226.678
223.811
221.024
218.319
215.701
213.172
210.735
208.392
206.143
203.99
201.933
199.97
198.103
196.328
194.645
193.053
191.547
190.127
188.789
187.53
186.345
185.233
184.187
183.204
182.279
181.407
180.584
179.804
179.062
178.354
177.672
177.014
176.372
175.741
175.116
174.493
173.864
173.227
172.575
171.904
171.211
170.491
169.741
168.957
168.138
167.28
166.381
165.44
164.455
163.424
162.347
161.223
160.051
158.833
157.569
156.258
154.902
153.503
152.061
150.578
149.057
147.499
145.906
144.281
142.628
140.947
139.244
137.52
135.779
134.024
132.258
130.484
128.705
126.924
125.143
123.365
121.591
119.824
118.065
116.317
114.58
112.856
111.147
109.452
107.773
106.111
104.466
102.838
101.228
99.635
98.061
96.505
94.967
93.447
91.945
90.46
88.993
87.543
86.109
84.691
83.288
81.9
80.526
79.166
77.819
76.485
75.163
73.854
72.558
71.274
70.003
68.745
67.5
66.269
65.052
63.85
62.664
61.493
60.339
59.203
58.084
56.983
55.9
54.837
53.793
52.767
51.762
50.776
49.809
48.862
47.935
47.027
46.139
45.271
44.422
43.593
42.784
41.995
41.225
40.476
39.746
39.036
38.347
37.677
37.028
36.398
35.789
35.199
34.63
34.081
33.552
33.043
32.555
32.088
31.641
31.217
30.814
30.433
30.075
29.741
29.43
29.144
28.882
28.644
28.432
28.244
28.081
27.942
27.825
27.731
27.658
27.604
27.568
27.547
27.539
27.541
27.551
27.566
27.582
27.597
27.605
27.605
27.591
27.559
27.506
27.427
27.317
27.173
26.99
26.763
26.487
26.159
25.773
25.326
24.814
24.232
23.577
22.845
22.033
21.139
20.161
19.096
17.944
16.703
15.374
13.956
12.449
10.856
9.177
7.415
5.572
3.651
1.654
-0.413
-2.548
-4.747
-7.003
-9.314
-11.674
-14.078
-16.521
-18.997
-21.501
-24.029
-26.574
-29.131
-31.694
-34.26
-36.822
-39.375
-41.916
-44.44
-46.943
-49.42
-51.87
-54.289
-56.674
-59.023
-61.334
-63.606
-65.837
-68.028
-70.177
-72.284
-74.351
-76.377
-78.365
-80.315
-82.228
-84.107
-85.954
-87.77
-89.558
-91.319
-93.057
-94.774
-96.471
-98.152
-99.818
-101.472
-103.117
-104.754
-106.385
-108.012
-109.638
-111.263
-112.89
-114.52
-116.154
-117.794
-119.44
-121.095
-122.759
-124.433
-126.117
-127.812
-129.518
-131.236
-132.965
-134.705
-136.457
-138.219
-139.991
-141.773
-143.565
-145.365
-147.174
-148.99
-150.814
-152.644
-154.481
-156.323
-158.17
-160.023
-161.88
-163.741
-165.606
-167.475
-169.347
-171.22
-173.095
-174.97
-176.844
-178.716
-180.583
-182.445
-184.3
-186.145
-187.979
-189.8
-191.605
-193.392
-195.16
-196.906
-198.626
-200.32
-201.985
-203.617
-205.214
-206.774
-208.294
-209.77
-211.201
-212.583
-213.913
-215.187
-216.403
-217.558
-218.648
-219.671
-220.623
-221.502
-222.306
-223.032
-223.68
-224.246
-224.732
-225.134
-225.453
-225.689
-225.84
-225.908
-225.892
-225.793
-225.612
-225.35
-225.007
-224.586
-224.088
-223.514
-222.866
-222.146
-221.357
-220.499
-219.577
-218.591
-217.545
-216.442
-215.284
-214.074
-212.817
-211.514
-210.169
-208.784
-207.364
-205.909
-204.423
-202.908
-201.367
-199.802
-198.215
-196.61
-194.988
-193.352
-191.706
-190.05
-188.388
-186.721
-185.05
-183.378
-181.705
-180.034
-178.365
-176.7
-175.04
-173.386
-171.741
-170.104
-168.477
-166.859
-165.249
-163.649
-162.059
-160.477
-158.902
-157.333
-155.767
-154.206
-152.648
-151.09
-149.524
-147.948
-146.352
-144.729
-143.073
-141.369
-139.606
-137.771
-135.852
-133.839
-131.726
-129.505
-127.17
-124.714
-122.132
-119.429
-116.609
-113.678
-110.65
-107.542
-104.375
-101.186
-98.013
-94.898
-91.894
-89.045
-86.396
-83.978
-81.808
-79.902
-78.286
-76.988
-76.039
-75.47
-75.272
-75.44
-75.984
-76.828
-77.836
-78.783
-79.309
-79.063
-77.796
-75.331
-71.56
-66.605
-60.725
-54.366
-48.248
-43.079
-39.452
-37.677
-37.698
-39.014
-40.798
-42.02
-41.373
-37.446
-28.785
-14.435
5.884
31.735
61.917
94.972
129.121
161.993
190.682
212.459
224.932
226.368
215.992
193.13
157.482
109.819
51.872
-13.896
-84.388
-156.601
-227.83
-294.694
-353.727
-402.07
-437.38
-458.439
-465.06
-457.182
-435.21
-400.956
-357.006
-306.394
-252.596
-198.468
-146.426
-99.256
-59.323
-27.713
-4.623
10.63
19.497
23.285
23.375
21.815
20.602
20.963
23.519
28.241
34.606
42.163
50.385
58.33
65
69.817
72.586
73.474
72.898
71.226
68.811
66.146
63.761
62.02
61.11
61.06
61.779
63.188
65.232
67.822
70.843
74.188
77.759
81.475
85.277
89.093
92.831
96.404
99.724
102.717
105.34
107.572
109.406
110.849
111.918
112.631
113.019
113.119
112.967
112.601
112.056
111.364
110.563
109.69
108.785
107.882
107.004
106.166
105.379
104.65
103.982
103.38
102.843
102.368
101.954
101.604
101.318
101.101
100.954
100.876
100.868
100.929
101.06
101.264
101.541
101.892
102.319
102.824
103.407
104.069
104.812
105.632
106.528
107.497
108.537
109.644
110.814
112.042
113.326
114.659
116.038
117.457
118.911
120.394
121.899
123.42
124.949
126.479
128.004
129.513
131.001
132.458
133.877
135.249
136.566
137.819
139
140.1
141.112
142.026
142.835
143.531
144.105
144.551
144.861
145.029
145.047
144.91
144.611
144.147
143.513
142.704
141.717
140.55
139.201
137.67
135.956
134.061
131.985
129.733
127.307
124.711
121.952
119.035
115.967
112.755
109.408
105.935
102.346
98.65
94.86
90.986
87.041
83.036
78.986
74.902
70.798
66.688
62.586
58.505
54.459
50.461
46.524
42.662
38.887
35.21
31.643
28.196
24.88
21.704
18.675
15.802
13.09
10.545
8.171
5.972
3.951
2.108
0.445
-1.04
-2.348
-3.481
-4.443
-5.238
-5.872
-6.352
-6.684
-6.876
-6.938
-6.878
-6.707
-6.436
-6.075
-5.637
-5.134
-4.577
-3.979
-3.353
-2.711
-2.065
-1.428
-0.811
-0.226
0.316
0.805
1.23
1.583
1.854
2.037
2.124
2.109
1.986
1.751
1.4
0.93
0.34
-0.372
-1.207
-2.162
-3.237
-4.429
-5.735
-7.151
-8.672
-10.293
-12.008
-13.811
-15.694
-17.649
-19.669
-21.744
-23.867
-26.028
-28.219
-30.429
-32.651
-34.875
-37.092
-39.295
-41.475
-43.624
-45.736
-47.802
-49.818
-51.776
-53.672
-55.501
-57.258
-58.941
-60.546
-62.071
-63.515
-64.876
-66.154
-67.349
-68.461
-69.493
-70.444
-71.318
-72.117
-72.843
-73.502
-74.096
-74.63
-75.108
-75.535
-75.916
-76.256
-76.56
-76.833
-77.081
-77.307
-77.518
-77.717
-77.909
-78.098
-78.288
-78.483
-78.687
-78.901
-79.128
-79.371
-79.631
-79.909
-80.206
-80.524
-80.862
-81.22
-81.599
-81.997
-82.413
-82.847
-83.296
-83.76
-84.235
-84.72
-85.212
-85.708
-86.206
-86.702
-87.194
-87.678
-88.152
-88.612
-89.056
-89.479
-89.88
-90.254
-90.601
-90.916
-91.197
-91.444
-91.652
-91.822
-91.952
-92.041
-92.088
-92.092
-92.054
-91.972
-91.848
-91.681
-91.473
-91.222
-90.932
-90.602
-90.234
-89.83
-89.391
-88.92
-88.417
-87.886
-87.328
-86.745
-86.141
-85.518
-84.878
-84.225
-83.561
-82.89
-82.215
-81.538
-80.863
-80.193
-79.53
-78.879
-78.24
-77.618
-77.014
-76.432
-75.873
-75.339
-74.833
-74.357
-73.913
-73.502
-73.127
-72.789
-72.488
-72.227
-72.007
-71.829
-71.694
-71.602
-71.555
-71.553
-71.597
-71.687
-71.823
-72.004
-72.23
-72.5
-72.813
-73.169
-73.566
-74.001
-74.475
-74.984
-75.528
-76.103
-76.709
-77.343
-78.003
-78.687
-79.392
-80.115
-80.856
-81.61
-82.376
-83.15
-83.932
-84.717
-85.504
-86.289
-87.07
-87.844
-88.608
-89.359
-90.094
-90.811
-91.507
-92.18
-92.827
-93.446
-94.036
-94.594
-95.118
-95.608
-96.062
-96.478
-96.855
-97.193
-97.49
-97.746
-97.959
-98.131
-98.259
-98.344
-98.385
-98.383
-98.336
-98.245
-98.111
-97.932
-97.71
-97.445
-97.138
-96.79
-96.402
-95.975
-95.51
-95.009
-94.473
-93.903
-93.301
-92.669
-92.008
-91.319
-90.604
-89.865
-89.103
-88.32
-87.517
-86.695
-85.856
-85.002
-84.133
-83.251
-82.357
-81.452
-80.538
-79.617
-78.688
-77.754
-76.815
-75.872
-74.926
-73.977
-73.026
-72.073
-71.118
-70.161
-69.201
-68.239
-67.274
-66.305
-65.332
-64.354
-63.369
-62.377
-61.376
-60.366
-59.344
-58.309
-57.261
-56.197
-55.117
-54.019
-52.901
-51.763
-50.603
-49.42
-48.212
-46.978
-45.716
-44.427
-43.107
-41.758
-40.379
-38.969
-37.528
-36.056
-34.553
-33.02
-31.457
-29.865
-28.244
-26.596
-24.921
-23.221
-21.499
-19.756
-17.994
-16.216
-14.424
-12.621
-10.81
-8.993
-7.173
-5.353
-3.536
-1.726
0.074
1.861
3.631
5.381
7.106
8.805
10.473
12.108
13.706
15.266
16.784
18.257
19.683
21.059
22.383
23.65
24.859
26.007
27.092
28.113
29.067
29.952
30.769
31.518
32.198
32.811
33.358
33.84
34.258
34.615
34.915
35.16
35.352
35.494
35.591
35.649
35.676
35.678
35.662
35.629
35.586
35.538
35.493
35.456
35.434
35.432
35.464
35.547
35.704
35.955
36.315
36.794
37.401
38.145
39.036
40.085
41.297
42.674
44.212
45.908
47.754
49.737
51.826
53.967
56.089
58.124
60.008
61.695
63.153
64.346
65.227
65.742
65.839
65.48
64.661
63.375
61.592
59.356
56.789
54.134
51.771
50.073
49.314
49.693
51.337
54.189
58.06
62.572
67.047
70.776
73.145
73.818
72.822
70.62
67.953
65.746
65.283
68.068
75.673
89.258
109.263
135.251
166.094
200.338
235.951
270.145
299.557
320.795
330.961
328.169
311.353
279.858
233.92
174.98
105.608
29.356
-49.855
-128.443
-202.806
-269.181
-324.363
-365.834
-391.93
-402.272
-397.168
-377.26
-344.293
-300.941
-250.132
-195.205
-139.531
-85.876
-36.992
4.6
37.695
62.101
78.222
87.287
90.911
90.683
88.704
87.162
87.309
89.726
94.544
101.34
109.524
118.497
127.261
134.701
140.245
143.709
145.193
145.089
143.781
141.615
139.096
136.786
135.037
134.045
133.865
134.41
135.618
137.447
139.809
142.589
145.689
149.015
152.49
156.065
159.668
163.218
166.636
169.844
172.777
175.386
177.642
179.535
181.068
182.259
183.129
183.708
184.031
184.141
184.078
183.884
183.596
183.25
182.886
182.54
182.25
182.045
181.948
181.973
182.131
182.43
182.872
183.461
184.197
185.076
186.096
187.258
188.561
190.006
191.591
193.313
195.168
197.154
199.266
201.502
203.857
206.327
208.907
211.592
214.376
217.254
220.22
223.265
226.38
229.556
232.784
236.055
239.358
242.683
246.021
249.362
252.695
256.01
259.296
262.543
265.74
268.875
271.938
274.918
277.803
280.585
283.252
285.795
288.207
290.477
292.597
294.559
296.354
297.975
299.413
300.662
301.713
302.559
303.193
303.61
303.804
303.771
303.504
302.999
302.249
301.251
300.003
298.506
296.762
294.775
292.553
290.106
287.447
284.59
281.547
278.33
274.947
271.407
267.717
263.884
259.919
255.829
251.616
247.277
242.81
238.208
233.468
228.58
223.528
218.301
212.888
207.288
201.507
195.56
189.465
183.244
176.917
170.516
164.081
157.655
151.288
145.023
138.896
132.951
127.242
121.82
116.734
112.021
107.705
103.803
100.324
97.274
94.651
92.44
90.609
89.124
87.946
87.05
86.423
86.041
85.861
85.84
85.932
86.095
86.297
86.5
86.66
86.745
86.725
86.589
86.34
85.978
85.501
84.897
84.133
83.192
82.072
80.776
79.31
77.687
75.915
74.022
72.05
70.033
67.995
65.95
63.9
61.852
59.82
57.822
55.889
54.041
52.292
50.653
49.133
47.736
46.46
45.29
44.194
43.151
42.147
41.172
40.226
39.307
38.406
37.516
36.632
35.746
34.855
33.954
33.037
32.1
31.146
30.181
29.219
28.27
27.337
26.423
25.525
24.64
23.769
22.905
22.042
21.173
20.293
19.398
18.484
17.547
16.581
15.58
14.537
13.445
12.301
11.1
9.839
8.515
7.126
5.672
4.154
2.571
0.925
-0.783
-2.555
-4.387
-6.281
-8.232
-10.24
-12.303
-14.416
-16.577
-18.78
-21.022
-23.297
-25.6
-27.926
-30.269
-32.622
-34.981
-37.338
-39.688
-42.026
-44.345
-46.639
-48.904
-51.134
-53.325
-55.472
-57.571
-59.619
-61.611
-63.545
-65.418
-67.227
-68.97
-70.645
-72.25
-73.783
-75.244
-76.632
-77.945
-79.184
-80.35
-81.443
-82.463
-83.413
-84.295
-85.109
-85.859
-86.546
-87.174
-87.745
-88.261
-88.726
-89.143
-89.513
-89.841
-90.128
-90.377
-90.591
-90.772
-90.923
-91.045
-91.141
-91.212
-91.262
-91.292
-91.304
-91.3
-91.282
-91.252
-91.211
-91.16
-91.102
-91.037
-90.966
-90.892
-90.813
-90.732
-90.648
-90.563
-90.477
-90.39
-90.302
-90.214
-90.127
-90.04
-89.954
-89.869
-89.786
-89.706
-89.628
-89.555
-89.487
-89.424
-89.367
-89.318
-89.277
-89.245
-89.222
-89.211
-89.211
-89.225
-89.252
-89.294
-89.352
-89.428
-89.522
-89.636
-89.771
-89.928
-90.11
-90.317
-90.551
-90.813
-91.106
-91.431
-91.789
-92.182
-92.611
-93.077
-93.583
-94.128
-94.713
-95.34
-96.01
-96.722
-97.477
-98.275
-99.117
-100.002
-100.93
-101.902
-102.916
-103.971
-105.068
-106.204
-107.38
-108.593
-109.843
-111.127
-112.445
-113.793
-115.171
-116.575
-118.003
-119.453
-120.922
-122.407
-123.904
-125.41
-126.923
-128.439
-129.955
-131.467
-132.972
-134.466
-135.948
-137.413
-138.859
-140.283
-141.682
-143.055
-144.398
-145.711
-146.991
-148.236
-149.445
-150.616
-151.75
-152.845
-153.899
-154.914
-155.888
-156.822
-157.716
-158.57
-159.385
-160.163
-160.904
-161.611
-162.285
-162.93
-163.548
-164.142
-164.716
-165.274
-165.82
-166.357
-166.889
-167.419
-167.953
-168.492
-169.04
-169.6
-170.175
-170.766
-171.377
-172.01
-172.667
-173.347
-174.051
-174.78
-175.535
-176.315
-177.119
-177.946
-178.792
-179.657
-180.537
-181.432
-182.334
-183.238
-184.136
-185.018
-185.875
-186.697
-187.47
-188.178
-188.805
-189.335
-189.754
-190.051
-190.215
-190.236
-190.102
-189.805
-189.346
-188.727
-187.948
-187.025
-185.97
-184.804
-183.565
-182.288
-181.014
-179.8
-178.691
-177.731
-176.96
-176.392
-176.049
-175.959
-176.147
-176.647
-177.49
-178.655
-180.127
-181.911
-183.917
-186.013
-187.975
-189.435
-190.047
-189.561
-187.792
-184.639
-180.211
-174.742
-168.663
-162.697
-157.579
-153.964
-152.234
-152.396
-154.03
-156.396
-158.526
-159.096
-156.561
-149.325
-136.233
-116.833
-91.53
-61.412
-27.909
6.929
40.269
68.727
88.894
97.927
94.013
76.033
43.278
-4.009
-64.289
-134.685
-211.244
-289.857
-366.932
-438.752
-501.522
-551.982
-587.725
-607.846
-612.979
-604.195
-582.525
-549.816
-508.561
-461.678
-412.38
-363.014
-314.978
-269.764
-229.083
-194.174
-165.838
-144.006
-127.736
-116.375
-109.55
-106.453
-105.926
-106.663
-107.302
-107.195
-106.411
-104.95
-102.815
-100.21
-97.443
-95.081
-93.839
-93.98
-95.358
-97.759
-100.86
-104.358
-108.01
-111.449
-114.263
-116.237
-117.32
-117.558
-117.093
-116.033
-114.453
-112.469
-110.214
-107.808
-105.358
-102.945
-100.631
-98.484
-96.579
-94.98
-93.735
-92.861
-92.353
-92.193
-92.352
-92.795
-93.484
-94.372
-95.415
-96.568
-97.788
-99.035
-100.269
-101.452
-102.544
-103.511
-104.323
-104.964
-105.421
-105.687
-105.759
-105.635
-105.316
-104.804
-104.102
-103.209
-102.125
-100.85
-99.384
-97.729
-95.887
-93.86
-91.652
-89.265
-86.7
-83.962
-81.053
-77.977
-74.739
-71.343
-67.796
-64.105
-60.279
-56.328
-52.262
-48.09
-43.825
-39.476
-35.056
-30.576
-26.048
-21.483
-16.894
-12.292
-7.69
-3.102
1.461
5.986
10.458
14.867
19.198
23.438
27.576
31.599
35.494
39.25
42.856
46.301
49.573
52.665
55.565
58.267
60.762
63.044
65.107
66.945
68.555
69.933
71.077
71.984
72.655
73.089
73.286
73.249
72.98
72.482
71.76
70.819
69.665
68.305
66.747
65
63.072
60.975
58.719
56.316
53.777
51.117
48.347
45.481
42.533
39.517
36.447
33.336
30.199
27.049
23.9
20.765
17.657
14.588
11.57
8.615
5.734
2.937
0.235
-2.362
-4.847
-7.21
-9.444
-11.541
-13.497
-15.303
-16.957
-18.453
-19.788
-20.96
-21.966
-22.805
-23.476
-23.98
-24.318
-24.491
-24.501
-24.35
-24.043
-23.582
-22.971
-22.216
-21.32
-20.288
-19.126
-17.839
-16.433
-14.912
-13.283
-11.552
-9.724
-7.806
-5.805
-3.725
-1.573
0.644
2.92
5.248
7.624
10.039
12.489
14.968
17.468
19.986
22.515
25.05
27.587
30.12
32.646
35.161
37.66
40.14
42.597
45.029
47.433
49.805
52.143
54.445
56.707
58.927
61.104
63.235
65.319
67.352
69.334
71.263
73.138
74.957
76.72
78.426
80.074
81.663
83.194
84.666
86.08
87.436
88.733
89.973
91.154
92.277
93.343
94.351
95.301
96.194
97.028
97.804
98.523
99.184
99.787
100.332
100.821
101.253
101.629
101.95
102.217
102.432
102.594
102.707
102.77
102.787
102.758
102.684
102.569
102.412
102.215
101.981
101.71
101.405
101.067
100.697
100.299
99.875
99.426
98.956
98.467
97.963
97.446
96.921
96.39
95.857
95.325
94.799
94.281
93.776
93.286
92.816
92.367
91.942
91.546
91.179
90.846
90.547
90.286
90.065
89.885
89.751
89.663
89.624
89.636
89.701
89.821
89.998
90.233
90.527
90.881
91.296
91.772
92.309
92.907
93.565
94.282
95.057
95.889
96.774
97.712
98.7
99.735
100.817
101.942
103.107
104.311
105.551
106.824
108.128
109.459
110.815
112.193
113.588
114.998
116.419
117.846
119.278
120.708
122.134
123.552
124.958
126.348
127.718
129.065
130.386
131.679
132.94
134.167
135.359
136.515
137.632
138.71
139.749
140.747
141.705
142.622
143.498
144.334
145.13
145.887
146.605
147.286
147.931
148.542
149.121
149.67
150.191
150.688
151.162
151.617
152.057
152.485
152.904
153.317
153.729
154.143
154.562
154.989
155.428
155.879
156.347
156.831
157.335
157.86
158.406
158.974
159.565
160.18
160.819
161.482
162.167
162.875
163.605
164.355
165.123
165.909
166.709
167.521
168.343
169.173
170.007
170.841
171.674
172.5
173.316
174.118
174.903
175.667
176.405
177.114
177.791
178.433
179.037
179.6
180.12
180.593
181.018
181.393
181.714
181.981
182.191
182.342
182.434
182.465
182.433
182.34
182.184
181.967
181.69
181.355
180.963
180.517
180.017
179.468
178.873
178.234
177.553
176.834
176.08
175.297
174.494
173.674
172.844
172.003
171.157
170.31
169.468
168.637
167.82
167.024
166.257
165.54
164.89
164.326
163.861
163.499
163.248
163.114
163.103
163.226
163.485
163.878
164.4
165.045
165.804
166.661
167.584
168.516
169.388
170.135
170.697
171.036
171.127
170.935
170.419
169.534
168.232
166.48
164.282
161.629
158.498
154.939
151.076
147.152
143.542
140.597
138.574
137.657
137.959
139.417
141.84
144.849
147.79
149.992
150.898
150.212
147.965
144.593
140.802
137.459
135.785
137.198
143.133
154.668
172.246
195.491
223.428
254.786
287.693
319.566
347.27
367.555
377.631
375.625
360.259
330.675
286.925
230.206
163.025
88.94
11.731
-65.021
-137.442
-201.619
-254.141
-292.284
-314.715
-321.401
-312.72
-289.62
-254.301
-209.719
-159.252
-106.592
-54.726
-6.08
36.731
71.621
97.804
115.402
125.371
129.369
128.869
125.384
121.022
117.723
116.609
118.166
122.231
128.18
135.483
143.545
151.37
157.973
162.795
165.641
166.687
166.335
164.918
162.75
160.277
157.961
156.109
154.891
154.323
154.315
154.801
155.73
157.029
158.61
160.389
162.292
164.262
166.256
168.223
170.105
171.839
173.367
174.638
175.611
176.263
176.588
176.593
176.293
175.709
174.863
173.788
172.521
171.098
169.556
167.927
166.242
164.533
162.834
161.176
159.587
158.088
156.692
155.41
154.248
153.212
152.304
151.526
150.872
150.342
149.936
149.652
149.49
149.449
149.526
149.716
150.017
150.424
150.935
151.544
152.248
153.041
153.919
154.876
155.907
157.006
158.166
159.377
160.632
161.922
163.238
164.571
165.91
167.248
168.574
169.88
171.157
172.396
173.589
174.726
175.8
176.802
177.723
178.555
179.291
179.923
180.442
180.841
181.113
181.25
181.246
181.094
180.787
180.319
179.684
178.876
177.89
176.722
175.365
173.817
172.074
170.133
167.992
165.647
163.099
160.345
157.386
154.221
150.851
147.277
143.502
139.527
135.357
130.994
126.444
121.711
116.801
111.721
106.479
101.08
95.534
89.85
84.036
78.103
72.062
65.922
59.696
53.394
47.029
40.612
34.156
27.672
21.172
14.669
8.174
1.699
-4.745
-11.147
-17.495
-23.781
-29.993
-36.123
-42.162
-48.101
-53.934
-59.653
-65.253
-70.727
-76.071
-81.28
-86.351
-91.281
-96.068
-100.71
-105.206
-109.557
-113.762
-117.823
-121.741
-125.518
-129.158
-132.663
-136.035
-139.28
-142.401
-145.401
-148.286
-151.059
-153.725
-156.289
-158.755
-161.127
-163.41
-165.607
-167.723
-169.76
-171.723
-173.614
-175.436
-177.192
-178.885
-180.516
-182.087
-183.601
-185.059
-186.461
-187.81
-189.106
-190.349
-191.541
-192.681
-193.77
-194.809
-195.797
-196.735
-197.623
-198.462
-199.253
-199.995
-200.69
-201.339
-201.942
-202.502
-203.019
-203.497
-203.936
-204.34
-204.711
-205.052
-205.366
-205.657
-205.928
-206.183
-206.426
-206.66
-206.888
-207.116
-207.346
-207.582
-207.828
-208.087
-208.364
-208.66
-208.979
-209.323
-209.695
-210.098
-210.532
-210.998
-211.499
-212.035
-212.605
-213.21
-213.848
-214.52
-215.223
-215.956
-216.716
-217.5
-218.306
-219.13
-219.968
-220.817
-221.672
-222.529
-223.384
-224.233
-225.071
-225.894
-226.698
-227.479
-228.233
-228.957
-229.648
-230.303
-230.918
-231.493
-232.025
-232.512
-232.954
-233.35
-233.7
-234.004
-234.263
-234.478
-234.651
-234.782
-234.876
-234.933
-234.958
-234.953
-234.922
-234.87
-234.8
-234.717
-234.624
-234.528
-234.431
-234.338
-234.253
-234.18
-234.122
-234.084
-234.066
-234.073
-234.107
-234.168
-234.258
-234.377
-234.527
-234.705
-234.912
-235.147
-235.406
-235.689
-235.992
-236.312
-236.646
-236.99
-237.339
-237.69
-238.038
-238.377
-238.701
-239.006
-239.286
-239.534
-239.745
-239.913
-240.031
-240.096
-240.099
-240.038
-239.906
-239.699
-239.414
-239.045
-238.591
-238.049
-237.416
-236.691
-235.873
-234.961
-233.956
-232.858
-231.669
-230.389
-229.021
-227.566
-226.028
-224.409
-222.713
-220.942
-219.101
-217.193
-215.224
-213.197
-211.117
-208.99
-206.819
-204.611
-202.37
-200.101
-197.81
-195.501
-193.179
-190.85
-188.516
-186.183
-183.854
-181.532
-179.221
-176.923
-174.64
-172.375
-170.128
-167.901
-165.695
-163.512
-161.35
-159.212
-157.097
-155.005
-152.937
-150.892
-148.871
-146.872
-144.897
-142.944
-141.013
-139.103
-137.214
-135.345
-133.496
-131.664
-129.851
-128.054
-126.273
-124.506
-122.754
-121.016
-119.291
-117.578
-115.879
-114.193
-112.521
-110.863
-109.219
-107.591
-105.979
-104.384
-102.807
-101.248
-99.709
-98.191
-96.693
-95.216
-93.761
-92.328
-90.918
-89.529
-88.163
-86.818
-85.495
-84.194
-82.915
-81.656
-80.418
-79.201
-78.004
-76.827
-75.669
-74.53
-73.409
-72.305
-71.217
-70.143
-69.083
-68.034
-66.995
-65.965
-64.94
-63.92
-62.903
-61.886
-60.868
-59.847
-58.821
-57.79
-56.75
-55.701
-54.643
-53.573
-52.49
-51.396
-50.288
-49.166
-48.031
-46.881
-45.716
-44.536
-43.34
-42.129
-40.902
-39.659
-38.401
-37.127
-35.839
-34.536
-33.22
-31.893
-30.555
-29.207
-27.853
-26.492
-25.127
-23.76
-22.392
-21.025
-19.662
-18.304
-16.953
-15.612
-14.282
-12.964
-11.661
-10.374
-9.104
-7.852
-6.62
-5.408
-4.219
-3.054
-1.915
-0.802
0.282
1.335
2.355
3.342
4.293
5.207
6.085
6.927
7.731
8.498
9.229
9.924
10.583
11.206
11.792
12.34
12.851
13.323
13.758
14.156
14.518
14.845
15.14
15.403
15.636
15.838
16.006
16.139
16.24
16.312
16.361
16.397
16.426
16.458
16.503
16.57
16.663
16.783
16.923
17.077
17.243
17.421
17.618
17.842
18.088
18.356
18.639
18.926
19.208
19.472
19.697
19.868
19.985
20.053
20.095
20.141
20.208
20.31
20.454
20.644
20.891
21.208
21.603
22.09
22.685
23.407
24.289
25.352
26.6
28.025
29.597
31.275
33.03
34.836
36.67
38.516
40.351
42.156
43.917
45.618
47.241
48.76
50.139
51.344
52.36
53.183
53.822
54.295
54.616
54.79
54.831
54.747
54.544
54.229
53.802
53.258
52.603
51.847
51.009
50.108
49.158
48.166
47.139
46.086
45.017
43.944
42.877
41.82
40.782
39.775
38.809
37.904
37.068
36.303
35.611
34.993
34.44
33.949
33.502
33.069
32.618
32.111
31.512
30.793
29.932
28.919
27.745
26.389
24.835
23.065
21.052
18.795
16.285
13.492
10.478
7.378
4.387
1.831
0.003
-0.887
-0.563
1.167
4.212
8.339
13.071
17.636
21.449
23.995
24.595
22.953
19.319
14.271
8.955
4.863
3.212
5.369
12.965
27.01
47.744
74.64
106.235
140.57
175.524
208.285
235.401
253.619
260.284
253.647
232.78
197.442
148.264
87.03
16.81
-58.554
-135.199
-209.389
-277.18
-334.987
-380.007
-410.17
-424.834
-424.413
-409.537
-381.714
-343.706
-298.531
-249.315
-199.371
-151.15
-106.791
-68.734
-38.29
-15.477
0.111
9.534
14.342
15.687
15.049
14.519
15.325
17.93
22.527
28.696
35.825
43.556
51.189
57.66
62.423
65.292
66.279
65.788
64.218
61.832
59.062
56.431
54.27
52.8
52.114
52.132
52.801
54.087
55.91
58.182
60.818
63.729
66.846
70.114
73.467
76.83
80.127
83.279
86.219
88.887
91.248
93.286
94.997
96.394
97.495
98.318
98.895
99.261
99.453
99.507
99.456
99.331
99.166
98.996
98.854
98.771
98.768
98.858
99.051
99.353
99.767
100.295
100.935
101.683
102.535
103.49
104.547
105.707
106.966
108.321
109.77
111.306
112.928
114.632
116.416
118.274
120.203
122.2
124.26
126.379
128.552
130.773
133.034
135.327
137.645
139.98
142.323
144.666
147.001
149.319
151.613
153.874
156.094
158.266
160.381
162.432
164.41
166.309
168.119
169.835
171.449
172.953
174.342
175.609
176.748
177.752
178.617
179.337
179.906
180.322
180.578
180.672
180.6
180.359
179.947
179.362
178.602
177.666
176.553
175.264
173.799
172.158
170.343
168.355
166.196
163.87
161.38
158.731
155.925
152.97
149.871
146.633
143.263
139.77
136.159
132.44
128.62
124.708
120.714
116.647
112.516
108.332
104.104
99.842
95.558
91.26
86.96
82.667
78.393
74.146
69.938
65.778
61.675
57.64
53.681
49.808
46.028
42.348
38.778
35.322
31.987
28.78
25.704
22.765
19.965
17.31
14.8
12.439
10.228
8.168
6.26
4.502
2.895
1.437
0.127
-1.038
-2.06
-2.943
-3.689
-4.303
-4.789
-5.152
-5.398
-5.531
-5.558
-5.485
-5.319
-5.065
-4.731
-4.323
-3.849
-3.316
-2.729
-2.096
-1.425
-0.721
0.009
0.757
1.519
2.286
3.054
3.816
4.566
5.298
6.008
6.69
7.339
7.95
8.518
9.039
9.509
9.924
10.281
10.576
10.807
10.972
11.067
11.093
11.047
10.929
10.738
10.474
10.138
9.73
9.252
8.703
8.086
7.402
6.655
5.845
4.976
4.05
3.071
2.042
0.966
-0.153
-1.312
-2.506
-3.732
-4.984
-6.259
-7.552
-8.858
-10.173
-11.492
-12.81
-14.124
-15.428
-16.719
-17.993
-19.246
-20.475
-21.676
-22.847
-23.985
-25.088
-26.154
-27.181
-28.169
-29.115
-30.021
-30.885
-31.707
-32.488
-33.228
-33.928
-34.59
-35.213
-35.799
-36.351
-36.87
-37.358
-37.818
-38.252
-38.662
-39.052
-39.424
-39.781
-40.126
-40.461
-40.79
-41.115
-41.438
-41.762
-42.089
-42.42
-42.758
-43.103
-43.456
-43.818
-44.189
-44.57
-44.959
-45.355
-45.759
-46.17
-46.584
-47.003
-47.423
-47.843
-48.261
-48.675
-49.084
-49.484
-49.873
-50.249
-50.61
-50.952
-51.274
-51.574
-51.848
-52.094
-52.312
-52.497
-52.649
-52.766
-52.846
-52.889
-52.893
-52.859
-52.785
-52.674
-52.525
-52.34
-52.119
-51.866
-51.581
-51.268
-50.928
-50.564
-50.18
-49.778
-49.361
-48.932
-48.496
-48.054
-47.611
-47.169
-46.731
-46.302
-45.883
-45.478
-45.089
-44.72
-44.372
-44.047
-43.749
-43.479
-43.238
-43.028
-42.849
-42.702
-42.587
-42.503
-42.45
-42.428
-42.433
-42.465
-42.52
-42.598
-42.694
-42.807
-42.932
-43.067
-43.208
-43.351
-43.493
-43.63
-43.758
-43.874
-43.975
-44.057
-44.116
-44.15
-44.156
-44.131
-44.072
-43.978
-43.845
-43.672
-43.458
-43.2
-42.899
-42.554
-42.163
-41.729
-41.25
-40.728
-40.164
-39.559
-38.916
-38.235
-37.521
-36.774
-35.999
-35.197
-34.372
-33.527
-32.666
-31.79
-30.904
-30.01
-29.112
-28.213
-27.314
-26.419
-25.531
-24.65
-23.779
-22.92
-22.074
-21.242
-20.425
-19.625
-18.84
-18.072
-17.32
-16.583
-15.861
-15.152
-14.456
-13.771
-13.094
-12.425
-11.761
-11.1
-10.44
-9.778
-9.113
-8.443
-7.764
-7.075
-6.374
-5.658
-4.927
-4.178
-3.41
-2.622
-1.814
-0.984
-0.133
0.74
1.634
2.549
3.483
4.437
5.408
6.395
7.396
8.409
9.43
10.459
11.491
12.525
13.556
14.583
15.603
16.613
17.61
18.591
19.554
20.498
21.419
22.315
23.186
24.028
24.842
25.626
26.38
27.102
27.794
28.454
29.085
29.686
30.259
30.804
31.323
31.819
32.292
32.746
33.182
33.603
34.012
34.411
34.803
35.192
35.578
35.965
36.355
36.749
37.15
37.557
37.973
38.398
38.832
39.275
39.727
40.187
40.654
41.126
41.6
42.076
42.551
43.02
43.482
43.934
44.371
44.789
45.186
45.556
45.897
46.202
46.469
46.692
46.868
46.991
47.058
47.065
47.008
46.884
46.69
46.423
46.082
45.665
45.17
44.597
43.945
43.215
42.408
41.524
40.566
39.537
38.437
37.271
36.041
34.751
33.404
32.003
30.554
29.059
27.522
25.948
24.341
22.705
21.043
19.361
17.662
15.949
14.226
12.495
10.761
9.023
7.286
5.55
3.816
2.084
0.356
-1.371
-3.098
-4.825
-6.556
-8.293
-10.041
-11.803
-13.582
-15.384
-17.212
-19.07
-20.964
-22.897
-24.873
-26.895
-28.965
-31.088
-33.266
-35.502
-37.795
-40.149
-42.562
-45.037
-47.574
-50.171
-52.824
-55.529
-58.279
-61.072
-63.903
-66.768
-69.657
-72.561
-75.473
-78.384
-81.283
-84.157
-86.986
-89.747
-92.419
-94.989
-97.442
-99.769
-101.956
-103.991
-105.861
-107.558
-109.079
-110.422
-111.589
-112.578
-113.399
-114.074
-114.643
-115.16
-115.677
-116.24
-116.882
-117.621
-118.484
-119.514
-120.743
-122.216
-123.966
-125.987
-128.308
-130.979
-133.959
-137.149
-140.322
-143.094
-145.14
-146.219
-146.061
-144.505
-141.591
-137.478
-132.698
-128.107
-124.432
-122.348
-122.436
-124.794
-129.121
-134.794
-140.496
-144.516
-145.185
-140.674
-129.428
-110.762
-84.743
-52.198
-15.021
24.258
62.601
96.249
121.398
134.898
134.41
118.399
86.424
39.01
-22.234
-94.261
-173.116
-254.694
-334.999
-409.88
-475.497
-528.592
-566.623
-588.509
-594.375
-584.745
-560.739
-524.679
-479.529
-428.599
-375.481
-323.009
-273.455
-229.303
-192.519
-163.817
-143.067
-129.348
-121.068
-116.873
-115.417
-114.78
-113.203
-109.692
-103.838
-95.859
-86.412
-76.04
-65.324
-55.197
-46.569
-39.948
-35.494
-33.023
-32.146
-32.527
-33.839
-35.644
-37.474
-39.019
-40.105
-40.682
-40.785
-40.422
-39.596
-38.351
-36.763
-34.903
-32.836
-30.609
-28.255
-25.824
-23.384
-20.992
-18.704
-16.558
-14.584
-12.809
-11.26
-9.959
-8.909
-8.1
-7.512
-7.115
-6.878
-6.766
-6.742
-6.763
-6.789
-6.785
-6.718
-6.563
-6.296
-5.892
-5.329
-4.586
-3.647
-2.503
-1.15
0.416
2.193
4.179
6.37
8.756
11.329
14.083
17.01
20.105
23.358
26.761
30.303
33.975
37.764
41.661
45.655
49.733
53.884
58.098
62.362
66.666
70.999
75.349
79.705
84.054
88.385
92.688
96.952
101.166
105.32
109.405
113.412
117.333
121.161
124.887
128.507
132.013
135.401
138.665
141.802
144.807
147.677
150.409
153
155.45
157.755
159.914
161.928
163.795
165.516
167.09
168.518
169.8
170.937
171.931
172.782
173.491
174.06
174.49
174.784
174.944
174.971
174.869
174.64
174.286
173.811
173.218
172.509
171.687
170.756
169.719
168.58
167.343
166.01
164.586
163.076
161.482
159.809
158.061
156.242
154.356
152.409
150.403
148.343
146.234
144.081
141.889
139.661
137.402
135.118
132.811
130.487
128.15
125.803
123.451
121.097
118.744
116.397
114.058
111.731
109.419
107.126
104.853
102.604
100.382
98.188
96.026
93.898
91.806
89.753
87.74
85.771
83.847
81.969
80.14
78.361
76.633
74.958
73.337
71.769
70.258
68.802
67.404
66.063
64.781
63.559
62.396
61.294
60.253
59.274
58.357
57.501
56.708
55.977
55.308
54.701
54.156
53.672
53.247
52.881
52.573
52.32
52.121
51.973
51.874
51.821
51.813
51.845
51.916
52.023
52.162
52.331
52.526
52.743
52.98
53.232
53.495
53.766
54.041
54.315
54.585
54.847
55.096
55.328
55.54
55.727
55.885
56.01
56.099
56.149
56.156
56.119
56.035
55.902
55.719
55.485
55.2
54.862
54.472
54.03
53.537
52.992
52.398
51.755
51.066
50.331
49.554
48.736
47.881
46.991
46.069
45.12
44.145
43.149
42.136
41.111
40.076
39.038
38
36.967
35.943
34.933
33.94
32.969
32.023
31.105
30.217
29.364
28.546
27.766
27.027
26.329
25.674
25.063
24.497
23.977
23.502
23.073
22.69
22.353
22.061
21.814
21.611
21.451
21.333
21.256
21.219
21.218
21.253
21.322
21.421
21.549
21.703
21.88
22.079
22.297
22.532
22.783
23.046
23.321
23.607
23.901
24.203
24.511
24.824
25.143
25.465
25.791
26.12
26.452
26.785
27.121
27.458
27.795
28.133
28.47
28.807
29.143
29.477
29.81
30.142
30.472
30.801
31.129
31.457
31.784
32.112
32.44
32.769
33.098
33.429
33.761
34.094
34.428
34.764
35.101
35.438
35.776
36.113
36.45
36.787
37.122
37.455
37.787
38.117
38.446
38.772
39.098
39.422
39.745
40.068
40.39
40.712
41.034
41.355
41.675
41.995
42.315
42.632
42.949
43.263
43.575
43.883
44.188
44.489
44.786
45.077
45.363
45.643
45.916
46.184
46.445
46.7
46.948
47.189
47.423
47.649
47.868
48.078
48.279
48.472
48.655
48.829
48.993
49.147
49.292
49.427
49.552
49.669
49.778
49.88
49.975
50.065
50.151
50.234
50.315
50.397
50.479
50.563
50.651
50.743
50.841
50.945
51.056
51.174
51.3
51.434
51.577
51.729
51.889
52.057
52.235
52.42
52.613
52.814
53.02
53.231
53.446
53.663
53.881
54.097
54.31
54.517
54.716
54.906
55.082
55.243
55.385
55.508
55.607
55.681
55.727
55.744
55.73
55.685
55.606
55.493
55.346
55.164
54.948
54.698
54.415
54.1
53.753
53.378
52.975
52.547
52.097
51.627
51.142
50.644
50.138
49.626
49.114
48.605
48.103
47.613
47.139
46.685
46.256
45.854
45.484
45.15
44.854
44.6
44.388
44.221
44.101
44.027
44.001
44.021
44.087
44.198
44.352
44.547
44.78
45.047
45.344
45.666
46.009
46.366
46.731
47.097
47.458
47.805
48.131
48.429
48.691
48.909
49.077
49.188
49.237
49.217
49.122
48.947
48.688
48.342
47.903
47.368
46.735
46.006
45.182
44.267
43.265
42.178
41.009
39.761
38.441
37.052
35.601
34.094
32.54
30.952
29.352
27.762
26.197
24.672
23.197
21.779
20.431
19.163
17.985
16.908
15.937
15.081
14.345
13.731
13.232
12.822
12.452
12.073
11.643
11.124
10.504
9.755
8.841
7.725
6.359
4.701
2.734
0.415
-2.329
-5.466
-8.905
-12.456
-15.777
-18.587
-20.693
-21.818
-21.764
-20.596
-18.511
-15.975
-13.734
-12.279
-12.005
-13.464
-16.85
-21.878
-27.944
-33.869
-38.213
-39.947
-37.888
-30.561
-17.104
2.775
28.599
58.837
91.802
125.858
158.449
186.354
206.521
216.019
212.987
196.675
166.156
121.102
62.811
-6.324
-82.928
-162.848
-242.699
-319.296
-388.431
-446.394
-490.65
-519.452
-532.616
-530.959
-514.82
-485.306
-445.204
-397.593
-345.665
-292.668
-240.853
-192.194
-149.344
-114.24
-87.39
-68.599
-56.893
-50.86
-49.411
-51.218
-54.222
-56.572
-57.23
-55.754
-52.324
-47.438
-41.475
-34.955
-28.788
-23.891
-20.754
-19.482
-19.846
-21.423
-23.855
-26.802
-29.803
-32.382
-34.233
-35.215
-35.334
-34.702
-33.408
-31.519
-29.13
-26.357
-23.301
-20.058
-16.702
-13.292
-9.901
-6.613
-3.504
-0.647
1.895
4.093
5.93
7.409
8.547
9.365
9.887
10.145
10.178
10.023
9.718
9.3
8.801
8.257
7.705
7.179
6.713
6.326
6.034
5.845
5.765
5.797
5.944
6.204
6.575
7.054
7.642
8.34
9.149
10.07
11.1
12.238
13.484
14.834
16.29
17.85
19.511
21.273
23.133
25.089
27.137
29.275
31.496
33.795
36.164
38.597
41.085
43.622
46.197
48.803
51.431
54.071
56.716
59.356
61.982
64.584
67.152
69.677
72.148
74.557
76.892
79.144
81.303
83.359
85.303
87.124
88.815
90.365
91.768
93.015
94.098
95.011
95.747
96.301
96.667
96.841
96.82
96.599
96.177
95.551
94.722
93.689
92.451
91.011
89.371
87.532
85.499
83.276
80.867
78.279
75.519
72.592
69.509
66.277
62.905
59.404
55.783
52.054
48.227
44.314
40.326
36.275
32.174
28.033
23.864
19.68
15.491
11.31
7.147
3.012
-1.084
-5.131
-9.12
-13.041
-16.887
-20.65
-24.322
-27.897
-31.369
-34.732
-37.983
-41.118
-44.132
-47.025
-49.795
-52.439
-54.959
-57.354
-59.626
-61.774
-63.802
-65.712
-67.507
-69.188
-70.761
-72.229
-73.595
-74.864
-76.039
-77.126
-78.127
-79.049
-79.893
-80.666
-81.37
-82.009
-82.588
-83.109
-83.576
-83.991
-84.357
-84.677
-84.951
-85.183
-85.373
-85.521
-85.629
-85.697
-85.725
-85.713
-85.66
-85.566
-85.43
-85.25
-85.027
-84.758
-84.442
-84.078
-83.665
-83.202
-82.688
-82.122
-81.504
-80.835
-80.113
-79.34
-78.517
-77.645
-76.725
-75.76
-74.752
-73.705
-72.622
-71.508
-70.366
-69.201
-68.019
-66.827
-65.629
-64.432
-63.244
-62.07
-60.92
-59.8
-58.719
-57.684
-56.705
-55.788
-54.943
-54.179
-53.503
-52.924
-52.449
-52.087
-51.845
-51.728
-51.745
-51.901
-52.2
-52.649
-53.25
-54.007
-54.924
-56
-57.239
-58.64
-60.204
-61.928
-63.812
-65.853
-68.048
-70.393
-72.885
-75.518
-78.287
-81.186
-84.207
-87.345
-90.59
-93.934
-97.369
-100.886
-104.474
-108.124
-111.825
-115.568
-119.342
-123.135
-126.939
-130.742
-134.535
-138.308
-142.05
-145.753
-149.407
-153.004
-156.536
-159.995
-163.374
-166.664
-169.861
-172.956
-175.946
-178.823
-181.583
-184.221
-186.733
-189.114
-191.363
-193.475
-195.448
-197.281
-198.972
-200.521
-201.926
-203.189
-204.309
-205.289
-206.129
-206.831
-207.397
-207.83
-208.132
-208.307
-208.356
-208.283
-208.092
-207.786
-207.368
-206.843
-206.212
-205.482
-204.654
-203.735
-202.727
-201.635
-200.464
-199.218
-197.902
-196.521
-195.079
-193.583
-192.036
-190.443
-188.809
-187.139
-185.437
-183.707
-181.954
-180.181
-178.393
-176.592
-174.783
-172.968
-171.151
-169.334
-167.521
-165.714
-163.917
-162.131
-160.358
-158.602
-156.864
-155.146
-153.45
-151.777
-150.129
-148.507
-146.912
-145.345
-143.806
-142.296
-140.815
-139.361
-137.936
-136.538
-135.168
-133.823
-132.504
-131.209
-129.938
-128.69
-127.465
-126.261
-125.077
-123.913
-122.769
-121.643
-120.534
-119.441
-118.365
-117.302
-116.253
-115.216
-114.192
-113.177
-112.172
-111.176
-110.186
-109.203
-108.224
-107.248
-106.275
-105.302
-104.329
-103.354
-102.377
-101.398
-100.414
-99.426
-98.432
-97.432
-96.424
-95.408
-94.381
-93.343
-92.292
-91.226
-90.143
-89.043
-87.923
-86.782
-85.621
-84.437
-83.231
-82.002
-80.749
-79.47
-78.165
-76.831
-75.467
-74.072
-72.644
-71.183
-69.69
-68.165
-66.608
-65.021
-63.406
-61.763
-60.092
-58.389
-56.654
-54.888
-53.095
-51.281
-49.456
-47.626
-45.801
-43.992
-42.206
-40.448
-38.72
-37.014
-35.325
-33.651
-31.994
-30.362
-28.763
-27.197
-25.661
-24.154
-22.664
-21.183
-19.702
-18.198
-16.66
-15.085
-13.481
-11.869
-10.28
-8.733
-7.238
-5.803
-4.431
-3.134
-1.923
-0.807
0.202
1.092
1.846
2.437
2.842
3.058
3.096
2.985
2.772
2.486
2.154
1.803
1.456
1.15
0.92
0.788
0.777
0.909
1.208
1.715
2.464
3.474
4.75
6.28
8.039
10.015
12.189
14.533
17.013
19.567
22.138
24.684
27.169
29.574
31.874
34.023
35.977
37.693
39.13
40.275
41.103
41.559
41.677
41.558
41.38
41.474
42.133
43.581
46.119
49.954
55.017
61.094
67.706
74.094
79.694
83.97
86.211
86.097
83.839
80.035
75.896
72.926
72.341
75.574
84.356
99.854
122.512
151.908
186.584
224.627
263.937
301.61
334.015
357.553
369.089
366.492
348.557
314.749
265.485
202.505
128.976
49.086
-32.767
-112.404
-185.489
-247.973
-296.662
-329.301
-345.163
-344.819
-329.2
-299.852
-259.562
-211.596
-159.303
-106.053
-54.392
-6.344
35.792
70.225
96.444
114.71
125.924
131.452
132.425
130.058
126.23
122.797
120.843
120.851
122.765
126.163
130.728
136.081
141.404
145.771
148.681
150
149.903
148.795
147.008
144.825
142.68
141.045
140.205
140.286
141.273
143.029
145.452
148.469
151.964
155.805
159.871
164.054
168.278
172.48
176.584
180.504
184.161
187.492
190.466
193.072
195.308
197.185
198.722
199.946
200.89
201.589
202.077
202.388
202.553
202.607
202.586
202.524
202.455
202.405
202.391
202.423
202.508
202.65
202.849
203.106
203.416
203.779
204.196
204.667
205.196
205.783
206.43
207.137
207.906
208.737
209.634
210.598
211.633
212.741
213.926
215.19
216.535
217.964
219.476
221.071
222.748
224.506
226.341
228.253
230.238
232.293
234.414
236.599
238.843
241.142
243.491
245.884
248.315
250.778
253.265
255.769
258.282
260.794
263.296
265.778
268.23
270.641
273.001
275.297
277.518
279.651
281.686
283.61
285.41
287.076
288.595
289.956
291.148
292.159
292.981
293.602
294.014
294.207
294.175
293.908
293.402
292.648
291.644
290.385
288.868
287.091
285.054
282.757
280.203
277.394
274.335
271.032
267.491
263.721
259.729
255.528
251.127
246.538
241.775
236.852
231.781
226.579
221.26
215.84
210.334
204.759
199.132
193.467
187.782
182.092
176.413
170.761
165.151
159.597
154.115
148.717
143.416
138.225
133.155
128.216
123.418
118.77
114.278
109.95
105.79
101.804
97.994
94.364
90.915
87.648
84.563
81.659
78.935
76.389
74.02
71.823
69.795
67.933
66.233
64.689
63.298
62.054
60.953
59.989
59.157
58.452
57.867
57.399
57.041
56.789
56.638
56.583
56.621
56.747
56.958
57.252
57.624
58.072
58.595
59.19
59.855
60.588
61.387
62.252
63.179
64.167
65.214
66.318
67.477
68.688
69.949
71.257
72.61
74.003
75.433
76.897
78.392
79.913
81.455
83.016
84.589
86.171
87.756
89.338
90.911
92.471
94.009
95.519
96.995
98.43
99.816
101.146
102.413
103.611
104.733
105.772
106.722
107.577
108.333
108.984
109.525
109.954
110.266
110.46
110.531
110.48
110.304
110.003
109.575
109.022
108.343
107.539
106.612
105.562
104.393
103.106
101.705
100.194
98.576
96.856
95.038
93.129
91.132
89.054
86.9
84.676
82.387
80.04
77.639
75.19
72.698
70.168
67.603
65.009
62.388
59.745
57.082
54.402
51.708
49.002
46.287
43.565
40.838
38.107
35.374
32.642
29.912
27.184
24.461
21.742
19.03
16.325
13.628
10.939
8.26
5.59
2.93
0.281
-2.356
-4.981
-7.592
-10.188
-12.767
-15.327
-17.867
-20.383
-22.873
-25.334
-27.762
-30.155
-32.508
-34.819
-37.083
-39.297
-41.458
-43.562
-45.606
-47.587
-49.502
-51.348
-53.123
-54.825
-56.45
-57.998
-59.467
-60.856
-62.162
-63.386
-64.527
-65.585
-66.559
-67.45
-68.259
-68.987
-69.636
-70.208
-70.706
-71.133
-71.492
-71.787
-72.023
-72.203
-72.334
-72.419
-72.464
-72.474
-72.456
-72.414
-72.355
-72.283
-72.204
-72.123
-72.046
-71.977
-71.922
-71.884
-71.868
-71.879
-71.921
-71.996
-72.11
-72.264
-72.463
-72.709
-73.003
-73.348
-73.746
-74.198
-74.704
-75.265
-75.881
-76.552
-77.276
-78.054
-78.883
-79.763
-80.69
-81.663
-82.679
-83.736
-84.831
-85.961
-87.123
-88.315
-89.533
-90.775
-92.038
-93.319
-94.614
-95.922
-97.239
-98.563
-99.89
-101.218
-102.546
-103.869
-105.186
-106.496
-107.795
-109.082
-110.356
-111.614
-112.856
-114.08
-115.286
-116.472
-117.638
-118.784
-119.908
-121.012
-122.096
-123.158
-124.2
-125.221
-126.221
-127.202
-128.162
-129.102
-130.022
-130.923
-131.803
-132.664
-133.506
-134.328
-135.131
-135.914
-136.678
-137.422
-138.146
-138.851
-139.535
-140.198
-140.841
-141.462
-142.062
-142.64
-143.195
-143.727
-144.235
-144.719
-145.177
-145.609
-146.014
-146.392
-146.742
-147.063
-147.357
-147.621
-147.857
-148.065
-148.244
-148.396
-148.52
-148.618
-148.691
-148.738
-148.762
-148.764
-148.745
-148.706
-148.65
-148.578
-148.491
-148.392
-148.283
-148.165
-148.041
-147.913
-147.784
-147.656
-147.531
-147.411
-147.301
-147.201
-147.115
-147.044
-146.991
-146.958
-146.946
-146.957
-146.991
-147.051
-147.136
-147.247
-147.384
-147.547
-147.737
-147.951
-148.191
-148.455
-148.742
-149.051
-149.38
-149.729
-150.095
-150.476
-150.871
-151.278
-151.694
-152.117
-152.545
-152.976
-153.406
-153.832
-154.254
-154.666
-155.068
-155.456
-155.828
-156.182
-156.517
-156.831
-157.125
-157.397
-157.647
-157.878
-158.089
-158.282
-158.458
-158.618
-158.765
-158.9
-159.026
-159.144
-159.256
-159.366
-159.475
-159.587
-159.705
-159.831
-159.968
-160.117
-160.281
-160.463
-160.666
-160.89
-161.137
-161.408
-161.704
-162.03
-162.384
-162.765
-163.169
-163.59
-164.023
-164.461
-164.896
-165.317
-165.711
-166.068
-166.375
-166.625
-166.81
-166.922
-166.951
-166.888
-166.727
-166.469
-166.119
-165.68
-165.163
-164.578
-163.943
-163.289
-162.649
-162.053
-161.544
-161.152
-160.909
-160.844
-160.968
-161.3
-161.864
-162.673
-163.746
-165.107
-166.741
-168.657
-170.88
-173.339
-175.912
-178.395
-180.45
-181.799
-182.246
-181.533
-179.501
-176.207
-171.824
-166.874
-162.15
-158.26
-155.756
-155.154
-156.563
-159.755
-164.19
-168.627
-171.544
-171.587
-167.239
-157.245
-141.026
-118.468
-90.22
-57.893
-23.458
10.734
41.649
66.336
82.124
86.685
78.629
57.23
22.26
-25.449
-83.969
-150.683
-222.283
-295.336
-366.594
-432.352
-489.074
-534.036
-565.146
-581.449
-583.01
-570.11
-543.883
-506.893
-462.125
-412.774
-362.325
-313.455
-268.506
-230.094
-199.693
-177.422
-162.858
-154.796
-151.471
-151.524
-153.326
-154.733
-154.473
-152.03
-147.226
-140.556
-132.742
-124.268
-115.903
-108.686
-103.14
-99.436
-97.533
-97.009
-97.441
-98.515
-99.791
-100.778
-101.177
-100.817
-99.647
-97.763
-95.24
-92.128
-88.52
-84.514
-80.203
-75.677
-71.013
-66.27
-61.518
-56.84
-52.314
-48.016
-44.009
-40.329
-36.993
-34.008
-31.364
-29.046
-27.03
-25.29
-23.787
-22.485
-21.348
-20.337
-19.419
-18.557
-17.712
-16.849
-15.935
-14.946
-13.867
-12.686
-11.394
-9.986
-8.456
-6.805
-5.033
-3.138
-1.121
1.021
3.29
5.685
8.207
10.853
13.621
16.511
19.519
22.645
25.885
29.236
32.695
36.256
39.915
43.667
47.504
51.417
55.399
59.44
63.53
67.662
71.824
76.007
80.201
84.396
88.584
92.754
96.897
101.002
105.06
109.061
112.995
116.853
120.623
124.298
127.866
131.319
134.647
137.843
140.897
143.801
146.549
149.133
151.546
153.783
155.838
157.706
159.383
160.865
162.15
163.234
164.116
164.794
165.268
165.535
165.597
165.454
165.107
164.558
163.808
162.861
161.719
160.388
158.872
157.177
155.31
153.277
151.085
148.745
146.263
143.65
140.916
138.071
135.125
132.088
128.973
125.79
122.551
119.265
115.945
112.6
109.243
105.883
102.531
99.196
95.89
92.62
89.397
86.23
83.126
80.095
77.143
74.278
71.505
68.832
66.262
63.801
61.451
59.216
57.099
55.099
53.22
51.459
49.818
48.294
46.886
45.592
44.41
43.336
42.366
41.498
40.726
40.048
39.46
38.955
38.532
38.184
37.907
37.698
37.551
37.461
37.425
37.438
37.495
37.593
37.727
37.893
38.089
38.31
38.554
38.819
39.1
39.398
39.709
40.033
40.367
40.711
41.064
41.425
41.794
42.172
42.556
42.948
43.347
43.753
44.166
44.585
45.009
45.439
45.874
46.312
46.754
47.198
47.643
48.089
48.534
48.977
49.417
49.852
50.281
50.703
51.115
51.516
51.904
52.278
52.636
52.976
53.296
53.595
53.87
54.121
54.345
54.541
54.708
54.845
54.95
55.022
55.063
55.07
55.045
54.988
54.899
54.78
54.632
54.456
54.253
54.026
53.776
53.506
53.218
52.915
52.599
52.272
51.938
51.599
51.259
50.919
50.582
50.251
49.928
49.616
49.317
49.032
48.765
48.517
48.29
48.085
47.904
47.748
47.616
47.511
47.432
47.379
47.352
47.351
47.375
47.423
47.494
47.587
47.701
47.834
47.985
48.153
48.334
48.529
48.735
48.951
49.174
49.405
49.64
49.881
50.125
50.371
50.619
50.869
51.12
51.373
51.626
51.88
52.137
52.396
52.659
52.927
53.2
53.482
53.773
54.075
54.391
54.722
55.07
55.439
55.83
56.247
56.691
57.165
57.673
58.216
58.797
59.42
60.085
60.796
61.554
62.362
63.222
64.134
65.1
66.122
67.201
68.336
69.53
70.781
72.09
73.456
74.88
76.359
77.893
79.481
81.12
82.808
84.544
86.325
88.148
90.009
91.907
93.836
95.794
97.776
99.778
101.796
103.824
105.859
107.895
109.927
111.95
113.958
115.947
117.911
119.845
121.742
123.598
125.408
127.166
128.867
130.506
132.078
133.579
135.004
136.349
137.61
138.783
139.866
140.855
141.747
142.541
143.233
143.824
144.311
144.694
144.972
145.146
145.217
145.185
145.052
144.82
144.492
144.07
143.557
142.957
142.274
141.512
140.676
139.771
138.801
137.774
136.693
135.566
134.398
133.194
131.962
130.706
129.434
128.15
126.862
125.573
124.291
123.019
121.763
120.529
119.319
118.138
116.99
115.878
114.804
113.772
112.783
111.839
110.94
110.088
109.283
108.524
107.811
107.143
106.518
105.935
105.391
104.884
104.41
103.968
103.553
103.162
102.791
102.437
102.095
101.762
101.434
101.106
100.776
100.439
100.092
99.731
99.353
98.955
98.534
98.089
97.616
97.114
96.58
96.015
95.417
94.784
94.117
93.416
92.68
91.911
91.108
90.273
89.408
88.513
87.591
86.644
85.673
84.681
83.67
82.643
81.601
80.547
79.485
78.414
77.339
76.261
75.183
74.105
73.03
71.96
70.895
69.837
68.787
67.745
66.712
65.688
64.673
63.668
62.671
61.683
60.703
59.73
58.764
57.802
56.845
55.891
54.938
53.985
53.031
52.073
51.111
50.144
49.169
48.185
47.193
46.19
45.176
44.15
43.111
42.061
40.997
39.921
38.832
37.732
36.621
35.501
34.373
33.239
32.099
30.956
29.812
28.667
27.525
26.387
25.255
24.131
23.018
21.916
20.83
19.761
18.711
17.681
16.674
15.691
14.734
13.803
12.9
12.025
11.178
10.361
9.572
8.812
8.078
7.37
6.687
6.025
5.381
4.752
4.134
3.524
2.917
2.309
1.696
1.073
0.437
-0.217
-0.891
-1.59
-2.317
-3.076
-3.871
-4.706
-5.582
-6.502
-7.469
-8.486
-9.556
-10.676
-11.847
-13.066
-14.332
-15.648
-17.012
-18.422
-19.872
-21.358
-22.874
-24.415
-25.969
-27.521
-29.053
-30.545
-31.979
-33.347
-34.636
-35.835
-36.936
-37.924
-38.788
-39.529
-40.14
-40.624
-40.987
-41.237
-41.397
-41.507
-41.614
-41.779
-42.06
-42.503
-43.148
-44.02
-45.148
-46.574
-48.34
-50.486
-53.047
-56.017
-59.389
-63.179
-67.316
-71.66
-75.975
-79.899
-83.098
-85.349
-86.483
-86.38
-85.1
-82.793
-79.789
-76.706
-74.134
-72.533
-72.149
-72.945
-74.542
-76.38
-77.721
-77.419
-74.215
-66.964
-54.76
-37.119
-14.248
13.231
43.723
74.179
101.515
123.38
139.631
151.92
160.204
160.774
145.776
107.295
42.959
-42.227
-136.96
-229.836
-313.931
-386.616
-448.58
-499.975
-539.013
-563.647
-572.122
-564.026
-540.483
-503.943
-457.691
-405.244
-350.325
-296.058
-244.968
-199.679
-162.267
-133.524
-113.355
-100.821
-94.225
-92.072
-92.882
-94.638
-95.524
-94.518
-91.178
-85.711
-78.781
-70.932
-62.746
-55.155
-49.042
-44.884
-42.799
-42.541
-43.654
-45.747
-48.446
-51.276
-53.747
-55.526
-56.443
-56.482
-55.725
-54.25
-52.111
-49.391
-46.201
-42.647
-38.825
-34.824
-30.708
-26.55
-22.443
-18.473
-14.724
-11.269
-8.15
-5.384
-2.98
-0.928
0.787
2.187
3.302
4.173
4.836
5.333
5.7
5.97
6.183
6.376
6.587
6.852
7.192
7.624
8.158
8.8
9.555
10.424
11.407
12.501
13.702
15.011
16.429
17.958
19.596
21.341
23.193
25.148
27.206
29.366
31.626
33.987
36.446
39.002
41.653
44.399
47.237
50.161
53.168
56.251
59.404
62.621
65.895
69.219
72.585
75.987
79.415
82.864
86.324
89.788
93.246
96.69
100.11
103.498
106.843
110.136
113.367
116.527
119.606
122.593
125.481
128.257
130.914
133.442
135.832
138.075
140.161
142.084
143.835
145.406
146.792
147.986
148.982
149.775
150.361
150.736
150.897
150.84
150.565
150.07
149.354
148.419
147.265
145.895
144.313
142.522
140.527
138.334
135.951
133.384
130.642
127.733
124.668
121.458
118.112
114.644
111.064
107.386
103.622
99.786
95.89
91.948
87.974
83.979
79.979
75.985
72.011
68.07
64.173
60.334
56.564
52.875
49.276
45.778
42.391
39.124
35.984
32.978
30.114
27.397
24.831
22.42
20.168
18.076
16.146
14.377
12.769
11.321
10.03
8.894
7.909
7.071
6.375
5.816
5.389
5.086
4.903
4.831
4.863
4.992
5.209
5.507
5.878
6.312
6.801
7.336
7.91
8.513
9.137
9.775
10.418
11.059
11.692
12.309
12.905
13.473
14.01
14.511
14.971
15.388
15.759
16.081
16.353
16.574
16.742
16.857
16.919
16.928
16.885
16.79
16.646
16.452
16.212
15.928
15.602
15.236
14.834
14.399
13.933
13.441
12.925
12.388
11.835
11.267
10.688
10.101
9.509
8.913
8.315
7.717
7.12
6.525
5.933
5.343
4.757
4.173
3.591
3.01
2.43
1.85
1.268
0.684
0.097
-0.496
-1.095
-1.702
-2.318
-2.944
-3.582
-4.234
-4.9
-5.581
-6.28
-6.996
-7.731
-8.487
-9.262
-10.058
-10.876
-11.714
-12.573
-13.452
-14.35
-15.266
-16.199
-17.146
-18.106
-19.076
-20.054
-21.039
-22.027
-23.015
-24.002
-24.984
-25.96
-26.927
-27.882
-28.823
-29.749
-30.657
-31.545
-32.413
-33.258
-34.079
-34.876
-35.648
-36.392
-37.11
-37.8
-38.461
-39.095
-39.7
-40.277
-40.826
-41.348
-41.844
-42.315
-42.761
-43.185
-43.587
-43.969
-44.333
-44.679
-45.011
-45.33
-45.636
-45.932
-46.219
-46.498
-46.77
-47.037
-47.298
-47.554
-47.805
-48.052
-48.294
-48.53
-48.762
-48.987
-49.205
-49.416
-49.619
-49.812
-49.994
-50.165
-50.322
-50.464
-50.589
-50.696
-50.783
-50.848
-50.889
-50.904
-50.89
-50.846
-50.769
-50.657
-50.508
-50.32
-50.092
-49.821
-49.506
-49.147
-48.742
-48.29
-47.79
-47.244
-46.65
-46.009
-45.322
-44.588
-43.81
-42.988
-42.123
-41.218
-40.274
-39.294
-38.279
-37.234
-36.16
-35.061
-33.941
-32.804
-31.653
-30.494
-29.33
-28.167
-27.01
-25.863
-24.733
-23.625
-22.543
-21.493
-20.481
-19.512
-18.59
-17.72
-16.907
-16.157
-15.473
-14.859
-14.319
-13.858
-13.478
-13.183
-12.976
-12.859
-12.834
-12.903
-13.067
-13.327
-13.685
-14.139
-14.69
-15.336
-16.075
-16.907
-17.828
-18.836
-19.927
-21.099
-22.346
-23.666
-25.054
-26.505
-28.015
-29.58
-31.194
-32.852
-34.549
-36.28
-38.04
-39.824
-41.626
-43.441
-45.263
-47.087
-48.909
-50.722
-52.523
-54.307
-56.068
-57.804
-59.509
-61.182
-62.817
-64.414
-65.968
-67.479
-68.944
-70.362
-71.732
-73.053
-74.324
-75.545
-76.716
-77.836
-78.905
-79.923
-80.891
-81.809
-82.677
-83.498
-84.273
-85.002
-85.69
-86.338
-86.95
-87.528
-88.076
-88.597
-89.095
-89.572
-90.033
-90.48
-90.915
-91.343
-91.767
-92.189
-92.613
-93.042
-93.476
-93.919
-94.37
-94.832
-95.306
-95.792
-96.291
-96.804
-97.331
-97.874
-98.434
-99.008
-99.591
-100.18
-100.766
-101.341
-101.895
-102.413
-102.884
-103.295
-103.635
-103.891
-104.051
-104.105
-104.04
-103.844
-103.51
-103.038
-102.428
-101.685
-100.821
-99.854
-98.812
-97.733
-96.655
-95.614
-94.649
-93.811
-93.145
-92.699
-92.51
-92.592
-92.962
-93.641
-94.653
-96.029
-97.785
-99.881
-102.279
-104.951
-107.802
-110.691
-113.387
-115.509
-116.704
-116.724
-115.383
-112.581
-108.422
-103.118
-97.091
-91.086
-85.843
-81.993
-79.936
-79.696
-80.837
-82.657
-84.207
-84.063
-80.697
-72.686
-58.795
-38.408
-11.974
19.601
54.441
89.05
120.666
146.987
166.513
179.986
185.88
179.615
155.635
108.387
37.558
-50.374
-144.889
-235.796
-316.371
-383.767
-439.287
-483.653
-516.658
-538.462
-547.116
-541.805
-522.95
-491.404
-450.436
-403.649
-353.955
-303.838
-254.857
-208.599
-167.331
-132.754
-105.481
-85.213
-70.935
-61.771
-56.978
-55.409
-55.315
-54.882
-53.011
-49.394
-44.26
-37.919
-30.635
-22.823
-15.264
-8.934
-4.391
-1.744
-0.822
-1.273
-2.802
-5.154
-7.933
-10.667
-13.044
-14.909
-16.222
-17.071
-17.518
-17.589
-17.351
-16.875
-16.212
-15.404
-14.454
-13.352
-12.098
-10.707
-9.199
-7.608
-5.957
-4.27
-2.571
-0.87
0.828
2.52
4.208
5.888
7.552
9.184
10.759
12.25
13.63
14.878
15.988
16.959
17.794
18.502
19.099
19.598
20.018
20.377
20.687
20.969
21.248
21.553
21.926
22.402
23.016
23.793
24.755
25.916
27.289
28.878
30.683
32.7
34.923
37.347
39.968
42.777
45.764
48.914
52.208
55.629
59.163
62.796
66.517
70.314
74.177
78.095
82.064
86.075
90.121
94.192
98.276
102.363
106.443
110.505
114.539
118.533
122.476
126.355
130.158
133.872
137.486
140.986
144.36
147.596
150.682
153.608
156.365
158.945
161.337
163.535
165.532
167.321
168.896
170.252
171.385
172.29
172.964
173.406
173.614
173.587
173.327
172.833
172.109
171.158
169.985
168.593
166.99
165.182
163.178
160.987
158.616
156.078
153.382
150.538
147.56
144.458
141.244
137.931
134.531
131.057
127.522
123.938
120.318
116.675
113.021
109.368
105.729
102.115
98.538
95.01
91.54
88.138
84.816
81.58
78.44
75.402
72.473
69.66
66.966
64.395
61.952
59.638
57.456
55.406
53.488
51.702
50.047
48.521
47.122
45.848
44.694
43.657
42.733
41.917
41.203
40.586
40.061
39.62
39.258
38.967
38.741
38.572
38.454
38.379
38.34
38.33
38.342
38.369
38.404
38.441
38.474
38.497
38.504
38.49
38.45
38.379
38.273
38.128
37.94
37.705
37.42
37.083
36.69
36.241
35.732
35.162
34.531
33.837
33.079
32.258
31.372
30.423
29.412
28.338
27.204
26.011
24.761
23.456
22.1
20.695
19.243
17.75
16.217
14.651
13.055
11.434
9.793
8.137
6.47
4.798
3.127
1.461
-0.196
-1.836
-3.456
-5.047
-6.605
-8.124
-9.596
-11.015
-12.374
-13.666
-14.884
-16.023
-17.076
-18.037
-18.899
-19.653
-20.294
-20.819
-21.229
-21.522
-21.701
-21.77
-21.734
-21.608
-21.4
-21.117
-20.766
-20.35
-19.876
-19.355
-18.797
-18.209
-17.598
-16.961
-16.299
-15.609
-14.88
