Name
Date of Birth,"Aug 26, 1996"
Recorded Date,2018-12-07 21:19:54 -0500
Classification,Sinus Rhythm
Symptoms,
Software Version,1.1
Device,"Watch4,2"
Sample Rate,512.352 hertz


Lead,Lead I
Unit,µV

-22.722
-23.401
-23.996
-24.492
-24.798
-24.92
-24.946
-24.97
-25.151
-25.498
-25.789
-25.932
-25.98
-25.821
-25.284
-24.103
-21.744
-18.014
-13.246
-7.675
-1.545
4.674
10.657
15.921
19.538
20.985
20.323
17.717
13.716
9.178
4.599
0.557
-1.993
-2.362
-0.183
4.664
11.637
19.835
28.737
37.893
46.721
54.763
61.548
66.81
70.848
74.254
77.366
80.351
83.281
86.151
89.083
92.098
94.986
97.429
99.27
100.681
101.998
103.562
105.637
108.418
112.012
116.519
121.599
126.081
128.678
128.241
124.821
119.978
114.646
108.525
98.609
80.761
55.262
28.037
11.061
17.506
52.753
112.232
183.191
251.816
310.678
359.443
402.125
439.998
469.05
484.144
481.552
463.559
437.92
409.981
378.408
333.806
262.651
154.653
11.44
-149.865
-305.49
-429.564
-502.967
-524.251
-500.197
-442.594
-367.426
-283.875
-198.863
-121.898
-60.545
-20.446
-4.511
-8.51
-19.986
-27.405
-23.405
-3.856
24.073
49.829
68.227
74.633
71.525
66.568
63.003
62.903
66.395
70.606
74.258
77.232
79.111
79.752
79.272
77.888
75.933
73.794
71.724
69.661
68.525
70.328
75.829
83.909
89.943
87.267
72.185
46.242
18.891
2.783
7.169
34.448
75.687
116.426
143.801
150.317
137.613
114.563
90.685
72.255
63.883
64.258
70.301
81.504
92.672
101.182
106.607
106.243
102.769
98.784
94.765
92.548
91.504
90.551
89.966
89.613
89.574
90.087
90.947
91.963
93.138
94.474
95.974
97.652
99.52
101.584
103.867
106.391
109.14
112.09
115.222
118.511
121.925
125.422
128.964
132.525
136.085
139.636
143.163
146.647
150.072
153.424
156.689
159.861
162.925
165.856
168.649
171.305
173.846
176.322
178.751
181.123
183.411
185.573
187.562
189.342
190.859
192.027
192.774
193.045
192.806
192.057
190.785
188.925
186.386
183.115
179.085
174.296
168.778
162.506
155.436
147.621
139.174
130.023
120.054
109.402
98.061
86.002
73.639
60.03
44.284
27.898
11.384
-2.601
-10.888
-16.793
-22.494
-31.297
-47.789
-67.798
-87.769
-105.221
-116.097
-123.144
-129.168
-134.762
-141.651
-148.798
-154.889
-160.191
-164.567
-168.139
-171.217
-173.662
-175.367
-176.442
-176.939
-176.881
-176.317
-175.26
-173.72
-171.75
-169.396
-166.681
-163.625
-160.242
-156.55
-152.58
-148.363
-143.935
-139.335
-134.583
-129.737
-124.882
-120.112
-115.553
-111.315
-107.476
-104.105
-101.254
-98.953
-97.221
-96.068
-95.479
-95.444
-95.945
-96.958
-98.467
-100.429
-102.783
-105.454
-108.338
-111.341
-114.384
-117.402
-120.353
-123.221
-126.001
-128.684
-131.255
-133.687
-135.942
-137.969
-139.701
-141.071
-141.996
-142.401
-142.226
-141.415
-139.897
-137.588
-134.398
-130.193
-124.821
-118.226
-110.417
-101.484
-91.632
-81.036
-69.82
-58.222
-46.473
-34.573
-22.378
-9.508
4.653
20.459
38.083
57.758
79.4
102.495
126.241
149.245
169.776
186.496
198.183
203.684
202.592
195.091
181.913
164.791
145.866
127.114
110.728
98.725
92.283
92.064
98.048
109.206
124.188
141.472
159.107
175.406
189.259
199.863
206.951
210.838
211.955
211.008
209.015
206.728
204.626
203.046
202.032
201.487
201.33
201.334
201.178
200.695
199.81
198.516
196.908
195.055
193
190.806
188.524
186.173
183.751
181.236
178.592
175.8
172.85
169.743
166.49
163.097
159.573
155.928
152.171
148.315
144.373
140.36
136.295
132.199
128.093
123.997
119.933
115.917
111.966
108.093
104.308
100.62
97.038
93.573
90.235
87.03
83.967
81.051
78.29
75.688
73.251
70.983
68.885
66.958
65.203
63.618
62.199
60.942
59.841
58.886
58.07
57.381
56.809
56.341
55.966
55.67
55.438
55.257
55.111
54.986
54.868
54.741
54.592
54.406
54.171
53.874
53.503
53.048
52.495
51.832
51.047
50.13
49.07
47.861
46.496
44.97
43.278
41.42
39.394
37.204
34.852
32.338
29.663
26.828
23.84
20.708
17.444
14.053
10.539
6.906
3.157
-0.695
-4.64
-8.669
-12.772
-16.942
-21.161
-25.397
-29.615
-33.782
-37.877
-41.891
-45.808
-49.597
-53.209
-56.586
-59.687
-62.5
-65.016
-67.239
-69.175
-70.796
-72.13
-73.274
-74.266
-75.124
-75.789
-76.018
-75.62
-74.611
-73.022
-70.968
-68.759
-66.573
-64.727
-63.98
-64.995
-68.089
-73.328
-80.191
-87.565
-94.736
-101.145
-105.441
-106.186
-102.495
-93.529
-80.473
-67.237
-55.008
-43.017
-29.571
-8.556
20.567
49.663
69.949
69.073
40.691
-4.361
-50.8
-82.656
-87.049
-69.633
-44.46
-22.657
-14.422
-18.879
-27.496
-35.968
-41.196
-42.84
-44.099
-45.74
-47.082
-47.986
-47.995
-47.082
-45.87
-44.696
-43.517
-42.412
-41.679
-41.525
-41.897
-42.714
-43.597
-44.027
-44.056
-43.817
-43.111
-41.772
-39.864
-37.472
-35.316
-34.598
-35.737
-38.922
-44.426
-52.164
-61.94
-73.369
-84.96
-94.502
-100.337
-100.95
-95.201
-82.599
-62.5
-34.531
0.443
40.831
84.936
130.683
176.426
220.872
261.924
297.12
324.511
342.331
348.929
343.107
323.265
287.744
237.5
175.893
105.831
29.595
-53.914
-148.106
-250.479
-351.996
-437.954
-492.811
-510.436
-495.585
-460.77
-419.138
-378.085
-338.595
-297.217
-251.953
-204.067
-156.771
-114.729
-80.792
-55.016
-36.488
-23.755
-15.323
-10.316
-7.792
-6.121
-3.841
-0.261
4.784
10.972
17.732
24.705
31.521
37.431
41.671
43.89
44.068
42.523
39.729
36.07
31.918
27.729
23.984
21.005
18.94
17.808
17.534
18.053
19.308
21.208
23.619
26.422
29.515
32.794
36.173
39.544
42.77
45.753
48.43
50.751
52.694
54.24
55.372
56.101
56.472
56.539
56.346
55.931
55.309
54.495
53.535
52.5
51.467
50.506
49.646
48.888
48.282
47.944
47.939
48.258
48.741
49.081
49.148
49.056
48.987
49.114
49.597
50.635
52.761
56.942
63.843
73.461
85.281
98.442
112.143
125.749
138.298
148.188
154.033
155.421
152.922
147.929
141.877
135.744
130.524
127.745
128.936
134.777
144.934
158.083
172.634
187.57
202.181
215.533
226.594
234.737
239.904
242.746
244.259
245.024
245.278
245.242
245.165
245.259
245.616
246.045
246.151
245.704
244.646
242.991
240.795
238.064
234.761
230.898
226.538
221.725
216.482
210.808
204.674
198.071
191.017
183.535
175.66
167.42
158.837
149.936
140.741
131.282
121.598
111.73
101.719
91.605
81.429
71.232
61.06
50.957
40.963
31.114
21.439
11.964
2.717
-6.274
-14.977
-23.363
-31.406
-39.088
-46.395
-53.314
-59.831
-65.934
-71.616
-76.876
-81.718
-86.143
-90.142
-93.698
-96.802
-99.442
-101.626
-103.373
-104.688
-105.572
-106.012
-105.981
-105.484
-104.55
-103.214
-101.519
-99.479
-97.078
-94.367
-91.468
-88.459
-85.361
-82.047
-78.23
-73.808
-68.902
-63.713
-58.444
-53.281
-48.457
-44.568
-42.612
-43.293
-46.746
-52.519
-59.794
-67.813
-75.779
-82.535
-86.441
-85.994
-80.519
-70.487
-57.154
-41.873
-26.09
-11.252
0.934
8.628
10.773
7.518
-0.139
-10.82
-22.968
-35.401
-47.001
-56.415
-62.801
-66.021
-66.424
-64.836
-62.256
-59.256
-56.224
-53.65
-51.79
-50.738
-50.483
-50.725
-51.077
-51.372
-51.552
-51.585
-51.523
-51.366
-51.085
-50.726
-50.347
-49.971
-49.605
-49.223
-48.778
-48.254
-47.653
-46.984
-46.262
-45.493
-44.676
-43.814
-42.913
-41.987
-41.053
-40.124
-39.207
-38.313
-37.45
-36.634
-35.884
-35.209
-34.605
-34.08
-33.651
-33.329
-33.138
-33.085
-33.134
-33.272
-33.522
-33.85
-34.2
-34.538
-34.792
-34.937
-35.085
-35.279
-35.447
-35.712
-36.355
-37.375
-38.708
-40.443
-42.086
-44.119
-48.583
-54.993
-61.542
-65.593
-60.607
-46.112
-29.002
-15.255
-15.263
-32.31
-55.658
-77.374
-87.932
-81.896
-68.811
-55.416
-46.376
-46.153
-49.739
-53.374
-56.509
-57.387
-57.331
-57.677
-57.879
-58.011
-58.041
-57.706
-57.16
-56.549
-55.843
-55.062
-54.276
-53.496
-52.689
-51.844
-50.939
-49.946
-48.88
-47.752
-46.552
-45.279
-43.939
-42.533
-41.069
-39.552
-37.982
-36.363
-34.696
-32.988
-31.245
-29.472
-27.676
-25.862
-24.037
-22.209
-20.385
-18.573
-16.778
-15.01
-13.277
-11.588
-9.957
-8.395
-6.915
-5.526
-4.235
-3.049
-1.976
-1.023
-0.198
0.492
1.042
1.443
1.686
1.762
1.664
1.39
0.947
0.339
-0.42
-1.328
-2.394
-3.628
-5.044
-6.643
-8.394
-10.283
-12.297
-14.418
-16.649
-18.954
-21.229
-23.479
-25.809
-28.296
-31.063
-34.087
-37.122
-40.081
-43.056
-45.917
-48.415
-50.258
-50.972
-50.562
-49.618
-48.45
-47.121
-45.897
-45.069
-45.199
-47.294
-51.588
-57.433
-64.333
-71.919
-79.835
-87.828
-95.062
-99.957
-101.623
-100.15
-95.996
-89.856
-82.155
-73.225
-64.162
-56.962
-53.418
-54.364
-59.593
-68.294
-79.994
-94.049
-109.033
-122.605
-131.935
-135.009
-131.124
-120.033
-101.128
-74.25
-39.928
0.351
43.952
88.674
133.066
175.165
212.059
240.918
259.141
264.608
256.104
232.119
190.975
133.677
64.262
-13.327
-95.993
-184.091
-280.374
-382.493
-481.06
-560.427
-604.984
-607.639
-572.995
-516.17
-452.714
-392.297
-338.49
-287.433
-236.312
-188.473
-147.33
-118.745
-106.867
-106.519
-112.64
-118.923
-118.097
-111.874
-102.234
-90.98
-82.035
-73.326
-63.139
-51.92
-39.158
-27.205
-18.129
-11.953
-8.831
-8.27
-9.506
-12.289
-16.223
-20.659
-25.157
-29.44
-33.297
-36.65
-39.447
-41.598
-43.065
-43.889
-44.104
-43.738
-42.839
-41.445
-39.615
-37.424
-34.937
-32.22
-29.357
-26.431
-23.529
-20.741
-18.123
-15.708
-13.523
-11.573
-9.854
-8.354
-7.041
-5.87
-4.793
-3.762
-2.74
-1.705
-0.646
0.448
1.6
2.861
4.276
5.873
7.661
9.628
11.791
14.219
16.917
19.796
22.672
25.342
27.749
30.046
32.419
34.912
37.6
40.693
44.621
49.924
56.794
64.909
73.706
82.813
91.953
100.78
108.707
114.94
119.083
121.43
122.681
123.379
123.849
124.339
125.22
127.089
130.292
134.639
139.572
144.601
149.456
154.014
158.165
161.651
164.267
166.041
167.181
167.893
168.274
168.32
167.973
167.237
166.145
164.698
162.869
160.618
157.928
154.814
151.317
147.471
143.296
138.803
133.995
128.885
123.49
117.828
111.92
105.785
99.442
92.911
86.213
79.37
72.403
65.334
58.182
50.965
43.703
36.422
29.145
21.899
14.707
7.592
0.576
-6.32
-13.077
-19.677
-26.102
-32.338
-38.368
-44.179
-49.761
-55.099
-60.185
-65.006
-69.555
-73.824
-77.811
-81.515
-84.936
-88.074
-90.925
-93.488
-95.765
-97.758
-99.472
-100.915
-102.088
-102.993
-103.641
-104.043
-104.215
-104.176
-103.932
-103.476
-102.816
-101.988
-101.037
-100.009
-98.94
-97.811
-96.608
-95.371
-94.091
-92.707
-91.195
-89.483
-87.489
-85.343
-83.198
-81.061
-79.187
-77.942
-77.178
-76.705
-76.653
-76.505
-76.761
-79.451
-83.648
-87.238
-87.29
-77.555
-58.472
-36.869
-19.525
-16.1
-27.916
-46.237
-63.638
-72.416
-71.017
-65.736
-60.514
-57.81
-57.89
-58.016
-57.414
-56.464
-55.295
-54.455
-53.963
-53.545
-53.387
-53.591
-53.976
-54.397
-54.703
-54.869
-55.089
-55.407
-55.672
-55.743
-55.473
-54.884
-54.24
-53.639
-52.967
-52.322
-51.925
-52.047
-53.147
-55.243
-57.792
-60.498
-63.285
-65.899
-68.089
-69.479
-69.386
-67.743
-65.198
-62.149
-58.83
-55.52
-52.324
-49.524
-47.717
-46.988
-46.887
-47.118
-47.442
-47.691
-47.928
-48.065
-47.824
-47.164
-46.259
-45.238
-44.242
-43.335
-42.439
-41.544
-40.704
-39.929
-39.209
-38.53
-37.857
-37.185
-36.546
-35.957
-35.43
-34.97
-34.567
-34.216
-33.915
-33.664
-33.461
-33.305
-33.191
-33.116
-33.073
-33.059
-33.068
-33.094
-33.131
-33.17
-33.201
-33.219
-33.219
-33.198
-33.151
-33.072
-32.956
-32.798
-32.592
-32.337
-32.026
-31.657
-31.227
-30.733
-30.176
-29.553
-28.865
-28.111
-27.292
-26.408
-25.458
-24.445
-23.369
-22.233
-21.037
-19.785
-18.479
-17.121
-15.715
-14.265
-12.774
-11.248
-9.689
-8.104
-6.496
-4.872
-3.237
-1.598
0.04
1.671
3.289
4.886
6.454
7.987
9.478
10.921
12.308
13.634
14.894
16.083
17.199
18.24
19.203
20.083
20.876
21.578
22.186
22.695
23.102
23.406
23.605
23.704
23.709
23.625
23.456
23.201
22.856
22.421
21.898
21.291
20.606
19.857
19.06
18.241
17.433
16.658
15.934
15.279
14.698
14.203
13.808
13.518
13.353
13.34
13.484
13.777
14.206
14.724
15.292
15.885
16.439
16.885
17.211
17.436
17.58
17.651
17.596
17.302
16.695
15.776
14.425
12.361
9.679
6.822
4.095
2.106
0.454
-2.693
-6.81
-10.137
-9.929
-0.963
15.586
33.229
45.484
43.384
26.749
4.529
-15.633
-24.989
-20.818
-8.266
9.821
31.79
57.045
87.472
122.87
160.85
199.302
236.398
270.361
299.177
320.857
333.592
336.096
328.189
309.565
279.072
235.897
181.558
119.487
53.19
-13.921
-83.093
-158.625
-240.006
-323.396
-397.597
-446.83
-461.294
-441.617
-406.883
-355.253
-264.528
-186.198
-178.047
-181.226
-139.688
-89.683
-59.773
-40.358
-27.721
-21.939
-19.484
-18.554
-17.868
-16.135
-12.835
-7.617
-0.552
7.677
16.316
24.929
32.919
39.393
43.918
46.403
46.94
45.993
43.998
41.217
38.056
35.05
32.541
30.749
29.78
29.553
30.027
31.213
33.059
35.491
38.426
41.76
45.416
49.355
53.515
57.824
62.189
66.488
70.636
74.588
78.314
81.807
85.065
88.079
90.864
93.461
95.91
98.257
100.542
102.786
105.019
107.277
109.603
112.039
114.62
117.357
120.255
123.329
126.586
130.038
133.687
137.517
141.511
145.653
149.926
154.327
158.853
163.489
168.223
173.051
177.965
182.965
188.057
193.207
198.383
203.556
208.682
213.743
218.731
223.592
228.298
232.842
237.153
241.345
245.49
249.385
253.028
255.861
257.433
258.137
258.038
259.037
260.829
264.542
280.242
287.653
251.753
218.315
244.832
279.121
268.389
246.68
239.939
236.256
232.133
230.141
229.103
228.481
227.728
226.681
225.477
223.712
220.793
215.975
208.852
199.764
189.471
178.543
167.335
156.135
145.346
135.609
127.326
120.348
114.16
108.313
102.571
96.85
91.085
85.045
78.551
71.658
64.598
57.604
50.8
44.205
37.78
31.543
25.54
19.785
14.257
8.922
3.763
-1.208
-5.955
-10.45
-14.682
-18.651
-22.367
-25.836
-29.06
-32.042
-34.785
-37.296
-39.584
-41.658
-43.528
-45.203
-46.694
-48.01
-49.165
-50.171
-51.04
-51.781
-52.403
-52.911
-53.316
-53.624
-53.847
-53.995
-54.074
-54.093
-54.056
-53.966
-53.829
-53.651
-53.44
-53.201
-52.937
-52.646
-52.326
-51.98
-51.608
-51.211
-50.785
-50.326
-49.831
-49.301
-48.744
-48.171
-47.585
-46.984
-46.365
-45.715
-45.044
-44.37
-43.71
-43.09
-42.509
-41.946
-41.4
-40.882
-40.401
-39.993
-39.63
-39.22
-38.778
-38.419
-38.265
-38.485
-39.07
-39.781
-40.526
-41.37
-42.224
-42.889
-43.006
-42.058
-39.972
-37.22
-34.203
-31.135
-28.242
-25.748
-24.185
-24.321
-26.382
-29.942
-34.364
-39.126
-43.937
-48.619
-52.668
-55.415
-56.553
-56.159
-54.723
-52.715
-50.21
-47.325
-44.491
-42.089
-40.364
-39.57
-39.595
-40.365
-42.211
-45.056
-48.357
-51.815
-55.201
-58.133
-60.462
-61.906
-61.809
-60.175
-57.623
-54.502
-51.086
-47.685
-44.398
-41.521
-39.661
-38.875
-38.716
-38.895
-39.168
-39.375
-39.577
-39.68
-39.397
-38.693
-37.752
-36.71
-35.72
-34.839
-33.988
-33.154
-32.393
-31.713
-31.106
-30.554
-30.023
-29.505
-29.036
-28.637
-28.322
-28.098
-27.954
-27.884
-27.888
-27.963
-28.113
-28.337
-28.634
-29.004
-29.439
-29.935
-30.489
-31.096
-31.746
-32.432
-33.14
-33.859
-34.588
-35.324
-36.068
-36.819
-37.57
-38.315
-39.05
-39.769
-40.476
-41.171
-41.855
-42.532
-43.186
-43.801
-44.379
-44.91
-45.39
-45.828
-46.182
-46.403
-46.554
-46.668
-46.786
-46.982
-47.157
-47.183
-47.115
-46.99
-46.667
-46.084
-45.078
-43.42
-41.378
-39.256
-37.064
-34.891
-32.919
-31.189
-30.005
-29.711
-29.98
-30.503
-31.197
-31.801
-32.223
-32.537
-32.489
-31.868
-30.863
-29.45
-27.635
-25.681
-23.487
-20.809
-17.585
-13.591
-8.815
-3.779
1.236
6.2
10.77
14.566
17.129
17.709
16.18
13.143
8.962
3.843
-1.905
-8.112
-14.394
-20.023
-24.812
-29.115
-33.146
-37.074
-40.981
-44.713
-48.252
-51.793
-55.301
-58.535
-61.32
-63.487
-64.991
-65.953
-66.467
-66.58
-66.363
-65.928
-65.397
-64.905
-64.563
-64.44
-64.577
-65.034
-65.96
-67.438
-69.444
-71.83
-74.232
-76.291
-77.817
-78.562
-78.176
-76.577
-73.884
-70.523
-67.497
-65.659
-65.39
-67.088
-71.1
-77.126
-84.271
-91.147
-95.577
-95.461
-90.614
-80.693
-63.523
-38.821
-4.602
40.567
90.684
141.649
188.387
223.859
249.094
264.03
268.34
265.295
255.367
239.779
219.97
194.542
157.916
102.827
23.37
-83.175
-207.242
-332.084
-438.379
-506.375
-529.256
-509.596
-457.511
-389.607
-318.982
-256.209
-206.847
-171.494
-147.813
-130.212
-115.136
-99.627
-83.452
-70.234
-61.311
-57.649
-58.768
-61.153
-62.728
-62.505
-59.954
-55.942
-51.193
-45.743
-39.912
-34.189
-29.045
-25.175
-22.917
-22.111
-22.525
-23.885
-25.89
-28.298
-30.805
-32.998
-34.633
-35.624
-35.948
-35.684
-34.887
-33.569
-31.792
-29.642
-27.193
-24.53
-21.723
-18.822
-15.905
-13.044
-10.297
-7.72
-5.34
-3.167
-1.204
0.559
2.144
3.569
4.865
6.063
7.194
8.294
9.405
10.567
11.831
13.236
14.813
16.591
18.586
20.811
23.275
25.98
28.924
32.104
35.518
39.162
43.037
47.138
51.458
55.989
60.719
65.638
70.736
76.002
81.424
86.993
92.693
98.513
104.44
110.458
116.551
122.696
128.873
135.059
141.232
147.369
153.449
159.448
165.344
171.118
176.748
182.215
187.5
192.579
197.432
202.035
206.363
210.401
214.13
217.52
220.546
223.186
225.418
227.235
228.641
229.601
230.084
230.123
229.743
228.967
227.831
226.314
224.375
222.077
219.509
216.538
212.991
208.978
204.495
199.512
194.435
188.218
179.833
170.744
161.398
154.502
153.295
154.203
154.809
151.496
139.339
122.637
105.067
89.196
79.217
72.205
65.256
57.864
48.36
37.93
28.022
18.388
9.212
0.5
-8.06
-16.556
-24.836
-32.683
-40.086
-46.769
-53.228
-61.207
-70.326
-78.826
-83.739
-79.603
-65.836
-46.268
-27.255
-19.286
-26.715
-47.958
-76.615
-99.781
-109.704
-103.4
-83.915
-62.226
-45.803
-39.257
-42.732
-49.934
-56.8
-61.043
-61.91
-61.652
-61.352
-60.955
-60.552
-59.745
-58.442
-57.016
-55.604
-54.212
-52.892
-51.67
-50.564
-49.59
-48.734
-47.948
-47.219
-46.575
-46.029
-45.58
-45.222
-44.947
-44.751
-44.639
-44.611
-44.66
-44.775
-44.944
-45.155
-45.401
-45.674
-45.967
-46.275
-46.59
-46.911
-47.234
-47.561
-47.89
-48.219
-48.545
-48.865
-49.179
-49.484
-49.778
-50.06
-50.329
-50.584
-50.826
-51.057
-51.278
-51.491
-51.699
-51.904
-52.109
-52.317
-52.532
-52.756
-52.992
-53.243
-53.512
-53.8
-54.109
-54.44
-54.793
-55.169
-55.567
-55.986
-56.425
-56.88
-57.352
-57.836
-58.331
-58.833
-59.34
-59.85
-60.358
-60.864
-61.364
-61.856
-62.337
-62.803
-63.252
-63.681
-64.087
-64.465
-64.814
-65.13
-65.41
-65.653
-65.856
-66.017
-66.136
-66.212
-66.245
-66.236
-66.185
-66.095
-65.967
-65.803
-65.609
-65.386
-65.138
-64.871
-64.588
-64.294
-63.992
-63.687
-63.383
-63.082
-62.79
-62.507
-62.239
-61.986
-61.753
-61.541
-61.353
-61.191
-61.057
-60.953
-60.88
-60.839
-60.831
-60.855
-60.912
-61.001
-61.121
-61.271
-61.449
-61.652
-61.88
-62.127
-62.391
-62.668
-62.955
-63.246
-63.539
-63.829
-64.113
-64.387
-64.648
-64.895
-65.124
-65.334
-65.522
-65.688
-65.831
-65.948
-66.04
-66.107
-66.148
-66.164
-66.155
-66.122
-66.066
-65.989
-65.892
-65.776
-65.644
-65.496
-65.337
-65.167
-64.99
-64.81
-64.629
-64.451
-64.279
-64.117
-63.969
-63.836
-63.722
-63.628
-63.558
-63.512
-63.492
-63.5
-63.536
-63.601
-63.696
-63.819
-63.97
-64.149
-64.354
-64.583
-64.834
-65.104
-65.393
-65.697
-66.015
-66.342
-66.676
-67.013
-67.349
-67.681
-68.002
-68.31
-68.598
-68.863
-69.098
-69.3
-69.465
-69.588
-69.663
-69.685
-69.65
-69.554
-69.395
-69.17
-68.876
-68.51
-68.07
-67.556
-66.965
-66.297
-65.548
-64.714
-63.795
-62.789
-61.702
-60.537
-59.296
-57.974
-56.569
-55.084
-53.518
-51.877
-50.165
-48.378
-46.523
-44.61
-42.64
-40.62
-38.56
-36.457
-34.315
-32.149
-29.966
-27.798
-25.744
-23.882
-22.242
-20.845
-19.671
-18.661
-17.812
-17.125
-16.357
-15.232
-13.901
-12.498
-11.138
-10.46
-9.742
-8.035
-6.657
-5.937
-8.135
-16.798
-29.614
-44.366
-56.317
-56.663
-44.015
-19.718
10.521
33.214
40.324
29.564
4.612
-22.25
-41.522
-49.993
-49.054
-45.069
-42.653
-42.434
-43.52
-44.037
-43.312
-41.916
-40.276
-38.687
-37.159
-35.662
-34.275
-32.945
-31.46
-29.663
-27.55
-25.257
-22.989
-20.844
-18.873
-17.194
-15.902
-15.05
-14.562
-14.184
-13.68
-12.948
-11.886
-10.321
-8.178
-5.501
-2.587
-0.093
1.5
2.065
1.589
0.029
-2.619
-6.077
-9.54
-11.613
-11.022
-7.064
0.628
12.517
29.335
51.54
78.993
110.791
145.665
182.773
221.469
260.385
297.165
329.148
353.418
367.309
368.641
354.588
323.682
277.342
217.774
147.893
67.412
-28.398
-139.272
-258.799
-371.732
-454.522
-494.186
-490.482
-452.631
-399.797
-343.292
-283.259
-220.681
-156.381
-95.198
-49.434
-23.861
-14.04
-14.35
-15.809
-14.271
-13.088
-13.675
-16.24
-19.545
-20.012
-16.28
-8.973
1.004
12.26
23.748
34.635
43.864
50.774
55.221
57.418
57.83
56.858
54.8
52.041
49.059
46.219
43.756
41.784
40.28
39.24
38.69
38.623
39.015
39.822
40.984
42.454
44.197
46.19
48.414
50.819
53.322
55.895
58.495
61.069
63.603
66.039
68.296
70.4
72.414
74.209
75.642
76.858
77.878
78.702
79.734
79.997
78.555
76.841
75.317
76.59
83.763
93.463
103.445
110.347
109.536
105.108
100.531
98.178
101.982
109.133
116.77
124.237
129.772
134.347
139.244
144.224
149.442
154.795
160.003
165.197
170.519
175.996
181.572
187.126
192.529
197.599
202.324
206.905
211.378
215.656
219.866
224.229
229.017
234.683
241.199
247.986
254.732
261.339
267.52
273.002
277.364
279.874
280.479
279.842
278.356
276.257
273.819
271.134
268.505
266.547
265.324
264.363
263.358
262.051
260.275
258.098
255.423
251.965
247.695
242.803
237.429
231.737
225.799
219.548
212.994
206.208
199.218
192.033
184.661
177.086
169.329
161.447
153.484
145.477
137.459
129.445
121.457
113.521
105.662
97.906
90.277
82.797
75.488
68.368
61.456
54.773
48.333
42.15
36.234
30.595
25.241
20.183
15.431
10.989
6.863
3.052
-0.444
-3.625
-6.496
-9.061
-11.326
-13.3
-14.993
-16.413
-17.573
-18.483
-19.157
-19.609
-19.853
-19.904
-19.776
-19.486
-19.048
-18.478
-17.794
-17.01
-16.143
-15.207
-14.219
-13.192
-12.141
-11.077
-10.013
-8.96
-7.927
-6.924
-5.959
-5.037
-4.166
-3.349
-2.59
-1.891
-1.254
-0.68
-0.167
0.285
0.678
1.015
1.299
1.533
1.721
1.867
1.976
2.052
2.101
2.128
2.139
2.14
2.137
2.134
2.139
2.156
2.19
2.245
2.325
2.433
2.571
2.742
2.947
3.187
3.461
3.768
4.109
4.48
4.88
5.305
5.752
6.218
6.698
7.191
7.69
8.192
8.694
9.192
9.681
10.157
10.617
11.055
11.469
11.854
12.207
12.523
12.8
13.034
13.222
13.364
13.456
13.498
13.488
13.428
13.317
13.155
12.945
12.687
12.385
12.04
11.655
11.233
10.778
10.291
9.777
9.238
8.676
8.095
7.496
6.882
6.255
5.617
4.97
4.315
3.654
2.988
2.319
1.647
0.974
0.301
-0.372
-1.044
-1.716
-2.387
-3.058
-3.729
-4.401
-5.074
-5.75
-6.429
-7.113
-7.802
-8.496
-9.197
-9.904
-10.618
-11.337
-12.062
-12.791
-13.522
-14.254
-14.983
-15.707
-16.423
-17.127
-17.815
-18.482
-19.126
-19.741
-20.322
-20.866
-21.367
-21.821
-22.223
-22.569
-22.853
-23.071
-23.219
-23.292
-23.287
-23.2
-23.028
-22.769
-22.42
-21.98
-21.448
-20.824
-20.107
-19.299
-18.401
-17.416
-16.346
-15.194
-13.966
-12.667
-11.301
-9.876
-8.398
-6.874
-5.311
-3.718
-2.102
-0.471
1.166
2.8
4.424
6.028
7.604
9.144
10.638
12.081
13.465
14.782
16.027
17.194
18.278
19.275
20.181
20.992
21.706
22.322
22.837
23.251
23.564
23.778
23.893
23.912
23.838
23.674
23.423
23.091
22.68
22.198
21.647
21.035
20.368
19.651
18.892
18.096
17.271
16.424
15.56
14.686
13.807
12.931
12.06
11.201
10.358
9.536
8.737
7.965
7.225
6.517
5.846
5.211
4.616
4.059
3.543
3.067
2.632
2.236
1.879
1.56
1.278
1.031
0.817
0.634
0.479
0.348
0.239
0.148
0.07
0.003
-0.059
-0.118
-0.18
-0.248
-0.326
-0.418
-0.529
-0.663
-0.823
-1.013
-1.237
-1.5
-1.804
-2.153
-2.551
-3.001
-3.506
-4.069
-4.693
-5.38
-6.133
-6.955
-7.845
-8.805
-9.835
-10.938
-12.113
-13.362
-14.681
-16.067
-17.518
-19.031
-20.603
-22.23
-23.907
-25.628
-27.388
-29.183
-31.012
-32.871
-34.754
-36.654
-38.56
-40.464
-42.366
-44.263
-46.152
-48.026
-49.876
-51.695
-53.479
-55.225
-56.929
-58.576
-60.148
-61.627
-62.999
-64.261
-65.414
-66.45
-67.346
-68.068
-68.576
-68.856
-68.926
-68.807
-68.51
-68.025
-67.315
-66.394
-65.344
-64.208
-62.952
-61.414
-59.398
-56.854
-53.939
-50.872
-47.759
-44.683
-41.832
-39.696
-38.905
-39.847
-42.487
-46.345
-50.955
-55.94
-60.791
-64.702
-66.691
-65.927
-62.028
-55.469
-46.95
-37.165
-27.04
-17.535
-9.64
-4.416
-2.653
-4.254
-8.758
-15.504
-23.463
-31.855
-40.066
-47.3
-52.857
-56.538
-58.394
-58.775
-58.394
-57.659
-56.76
-55.973
-55.516
-55.505
-56.022
-56.952
-57.979
-58.96
-59.877
-60.749
-61.688
-62.753
-63.947
-65.315
-66.919
-68.809
-71.029
-73.589
-76.462
-79.633
-83.074
-86.796
-90.865
-95.241
-99.773
-104.203
-108.121
-111.183
-113.19
-113.882
-112.95
-110.337
-106.206
-101.025
-95.629
-90.675
-86.481
-83.415
-81.86
-81.759
-82.677
-83.648
-83.137
-79.924
-73.26
-62.267
-45.964
-23.854
4.053
37.016
73.485
112.064
151.466
189.646
223.886
251.491
269.73
276.145
268.807
245.47
205.53
151.449
86.359
13.839
-65.694
-155.873
-256.095
-361.188
-458.874
-530.182
-563.554
-555.185
-509.358
-440.724
-361.98
-284.291
-218.419
-168.278
-136.463
-120.918
-114.195
-110.772
-103.496
-90.263
-73.276
-52.844
-34.057
-19.238
-8.417
-4.315
-4.786
-8.143
-14.131
-20.498
-27.475
-35.524
-43.704
-51.728
-58.643
-63.111
-65.084
-64.83
-62.688
-59.542
-55.943
-52.116
-48.613
-46.041
-44.551
-44.154
-44.577
-45.125
-45.449
-45.455
-44.96
-43.853
-42.115
-39.756
-36.981
-34.17
-31.533
-29.15
-27.065
-25.249
-23.701
-22.436
-21.404
-20.519
-19.712
-18.94
-18.175
-17.414
-16.63
-15.776
-14.811
-13.701
-12.423
-10.968
-9.328
-7.496
-5.466
-3.24
-0.821
1.792
4.597
7.598
10.797
14.194
17.785
21.562
25.519
29.644
33.93
38.368
42.949
47.665
52.509
57.47
62.539
67.703
72.949
78.259
83.618
89.008
94.412
99.811
105.187
110.523
115.801
121.003
126.112
131.107
135.97
140.683
145.227
149.583
153.733
157.658
161.342
164.766
167.916
170.776
173.332
175.57
177.478
179.045
180.262
181.119
181.611
181.731
181.474
180.84
179.825
178.432
176.661
174.516
172.001
169.122
165.887
162.303
158.382
154.134
149.572
144.708
139.559
134.139
128.467
122.56
116.437
110.118
103.624
96.977
90.198
83.309
76.334
69.296
62.216
55.118
48.024
40.955
33.934
26.981
20.115
13.356
6.723
0.232
-6.1
-12.258
-18.226
-23.993
-29.546
-34.875
-39.969
-44.82
-49.422
-53.768
-57.854
-61.677
-65.233
-68.523
-71.545
-74.303
-76.797
-79.033
-81.015
-82.748
-84.241
-85.5
-86.534
-87.353
-87.966
-88.383
-88.615
-88.673
-88.567
-88.309
-87.911
-87.385
-86.74
-85.99
-85.145
-84.218
-83.218
-82.157
-81.046
-79.895
-78.713
-77.511
-76.299
-75.085
-73.878
-72.687
-71.52
-70.385
-69.288
-68.237
-67.236
-66.292
-65.408
-64.589
-63.837
-63.157
-62.549
-62.016
-61.559
-61.179
-60.876
-60.65
-60.5
-60.425
-60.424
-60.495
-60.635
-60.841
-61.11
-61.44
-61.825
-62.264
-62.75
-63.28
-63.849
-64.451
-65.082
-65.736
-66.407
-67.089
-67.776
-68.462
-69.142
-69.811
-70.462
-71.091
-71.694
-72.265
-72.801
-73.297
-73.75
-74.155
-74.511
-74.814
-75.062
-75.254
-75.388
-75.463
-75.48
-75.438
-75.338
-75.181
-74.967
-74.698
-74.376
-74.003
-73.582
-73.115
-72.605
-72.056
-71.472
-70.857
-70.214
-69.549
-68.864
-68.164
-67.452
-66.733
-66.009
-65.285
-64.563
-63.847
-63.141
-62.446
-61.766
-61.104
-60.46
-59.837
-59.235
-58.656
-58.099
-57.565
-57.054
-56.564
-56.096
-55.647
-55.218
-54.807
-54.411
-54.03
-53.66
-53.301
-52.948
-52.6
-52.254
-51.908
-51.56
-51.207
-50.849
-50.483
-50.107
-49.721
-49.323
-48.911
-48.486
-48.045
-47.587
-47.114
-46.624
-46.117
-45.595
-45.058
-44.507
-43.944
-43.37
-42.787
-42.197
-41.602
-41.004
-40.406
-39.81
-39.22
-38.638
-38.067
-37.51
-36.971
-36.451
-35.954
-35.482
-35.036
-34.62
-34.234
-33.881
-33.56
-33.274
-33.022
-32.806
-32.626
-32.482
-32.374
-32.302
-32.264
-32.261
-32.291
-32.353
-32.444
-32.564
-32.71
-32.88
-33.071
-33.282
-33.508
-33.748
-33.999
-34.256
-34.517
-34.779
-35.038
-35.292
-35.536
-35.77
-35.989
-36.192
-36.376
-36.54
-36.683
-36.804
-36.901
-36.975
-37.025
-37.05
-37.052
-37.031
-36.986
-36.92
-36.832
-36.724
-36.597
-36.452
-36.291
-36.115
-35.926
-35.726
-35.516
-35.299
-35.074
-34.845
-34.613
-34.378
-34.142
-33.905
-33.67
-33.437
-33.206
-32.978
-32.751
-32.527
-32.303
-32.079
-31.85
-31.616
-31.373
-31.119
-30.85
-30.564
-30.257
-29.925
-29.566
-29.176
-28.753
-28.293
-27.792
-27.248
-26.659
-26.022
-25.337
-24.603
-23.819
-22.986
-22.105
-21.178
-20.209
-19.2
-18.153
-17.073
-15.963
-14.829
-13.675
-12.504
-11.321
-10.132
-8.944
-7.765
-6.602
-5.463
-4.356
-3.292
-2.279
-1.325
-0.434
0.392
1.15
1.837
2.446
2.968
3.399
3.738
3.984
4.137
4.202
4.188
4.116
4.017
3.91
3.814
3.736
3.68
3.653
3.665
3.725
3.842
4.024
4.277
4.607
5.019
5.5
6.02
6.522
6.937
7.21
7.303
7.198
6.879
6.315
5.478
4.334
2.861
1.054
-1.124
-3.725
-6.713
-9.945
-13.167
-16.002
-18.123
-19.309
-19.295
-17.864
-15.046
-11.116
-6.623
-2.293
1.377
4.155
5.789
6.133
5.475
4.576
4.633
6.907
12.227
21.04
33.896
51.433
73.76
100.156
129.283
159.982
191.387
222.601
252.33
277.205
294.136
302.556
301.046
290.384
271.331
239.696
195.191
136.942
61.901
-27.305
-130.308
-242.896
-351.931
-443.721
-504.19
-526.008
-513.653
-478.383
-432.17
-382.766
-331.869
-276.789
-216.542
-153.46
-92.106
-38.62
3.16
32.561
50.253
57.907
57.424
50.346
39.013
26.645
15.911
8.332
4.661
4.959
8.957
16.548
26.818
37.867
48.073
56.524
62.808
67.002
69.263
69.469
67.984
65.818
63.825
62.547
62.249
62.856
64.327
66.84
70.363
74.595
79.273
84.157
89.092
94.086
99.089
103.937
108.526
112.806
116.736
120.338
123.617
126.536
129.09
131.3
133.192
134.812
136.204
137.392
138.42
139.334
140.188
141.047
141.962
142.974
144.117
145.417
146.892
148.563
150.439
152.524
154.82
157.331
160.059
163.011
166.189
169.592
173.218
177.06
181.115
185.376
189.838
194.493
199.333
204.348
209.529
214.867
220.346
225.953
231.668
237.471
243.339
249.249
255.177
261.097
266.982
272.806
278.541
284.161
289.639
294.949
300.064
304.957
309.601
313.971
318.044
321.797
325.211
328.265
330.943
333.225
335.098
336.548
337.564
338.135
338.246
337.889
337.055
335.742
333.951
331.684
328.94
325.719
322.02
317.849
313.218
308.139
302.624
296.684
290.335
283.597
276.508
269.099
261.407
253.462
245.282
236.898
228.352
219.701
211.016
202.348
193.716
185.136
176.61
168.161
159.859
151.716
143.688
135.779
128.009
120.509
113.57
107.31
101.652
96.502
91.68
86.984
82.307
77.206
70.881
62.896
53.088
41.599
29.128
16.319
3.642
-7.861
-16.846
-22.38
-23.647
-20.504
-13.871
-4.61
6.423
17.711
27.796
35.497
39.486
39.239
35.317
28.292
19.041
8.971
-0.91
-9.728
-16.381
-20.386
-21.86
-20.972
-18.311
-14.751
-10.754
-6.712
-3.111
-0.131
2.172
3.75
4.828
5.708
6.503
7.28
8.082
8.858
9.61
10.358
11.055
11.65
12.124
12.472
12.719
12.91
13.061
13.176
13.255
13.29
13.284
13.243
13.168
13.058
12.907
12.711
12.467
12.174
11.828
11.426
10.96
10.426
9.823
9.15
8.411
7.613
6.757
5.848
4.887
3.88
2.828
1.738
0.612
-0.545
-1.728
-2.932
-4.151
-5.379
-6.61
-7.838
-9.057
-10.261
-11.445
-12.602
-13.728
-14.816
-15.862
-16.861
-17.808
-18.7
-19.532
-20.301
-21.003
-21.637
-22.201
-22.692
-23.11
-23.455
-23.726
-23.924
-24.052
-24.11
-24.101
-24.027
-23.892
-23.7
-23.454
-23.16
-22.822
-22.446
-22.038
-21.605
-21.154
-20.691
-20.224
-19.76
-19.305
-18.866
-18.448
-18.059
-17.703
-17.387
-17.114
-16.889
-16.717
-16.602
-16.547
-16.554
-16.626
-16.765
-16.972
-17.248
-17.592
-18.005
-18.486
-19.035
-19.649
-20.327
-21.067
-21.865
-22.718
-23.622
-24.573
-25.564
-26.592
-27.649
-28.732
-29.834
-30.949
-32.073
-33.201
-34.328
-35.449
-36.56
-37.657
-38.737
-39.796
-40.832
-41.843
-42.826
-43.781
-44.707
-45.603
-46.468
-47.304
-48.109
-48.885
-49.631
-50.349
-51.039
-51.702
-52.341
-52.956
-53.551
-54.129
-54.692
-55.243
-55.786
-56.324
-56.86
-57.397
-57.937
-58.484
-59.041
-59.608
-60.188
-60.783
-61.394
-62.022
-62.667
-63.328
-64.004
-64.695
-65.399
-66.114
-66.838
-67.569
-68.307
-69.048
-69.791
-70.534
-71.276
-72.014
-72.747
-73.471
-74.186
-74.888
-75.575
-76.245
-76.896
-77.525
-78.131
-78.712
-79.266
-79.792
-80.288
-80.753
-81.186
-81.585
-81.952
-82.286
-82.589
-82.861
-83.103
-83.319
-83.509
-83.677
-83.823
-83.951
-84.061
-84.155
-84.236
-84.304
-84.363
-84.413
-84.456
-84.494
-84.529
-84.561
-84.592
-84.623
-84.656
-84.691
-84.729
-84.771
-84.819
-84.873
-84.935
-85.006
-85.086
-85.177
-85.279
-85.392
-85.517
-85.655
-85.805
-85.968
-86.146
-86.34
-86.554
-86.789
-87.049
-87.336
-87.654
-88.007
-88.396
-88.824
-89.293
-89.805
-90.364
-90.972
-91.633
-92.352
-93.134
-93.981
-94.897
-95.887
-96.955
-98.104
-99.332
-100.641
-102.031
-103.507
-105.076
-106.743
-108.504
-110.353
-112.284
-114.284
-116.342
-118.434
-120.528
-122.592
-124.599
-126.524
-128.357
-130.079
-131.668
-133.096
-134.332
-135.358
-136.169
-136.77
-137.158
-137.342
-137.34
-137.199
-136.999
-136.813
-136.696
-136.691
-136.824
-137.135
-137.676
-138.497
-139.64
-141.128
-142.957
-145.114
-147.594
-150.376
-153.404
-156.567
-159.686
-162.576
-165.077
-167.066
-168.436
-169.043
-168.711
-167.25
-164.495
-160.331
-154.689
-147.465
-138.46
-127.553
-114.791
-100.451
-85.077
-69.179
-53.094
-37.247
-22.225
-8.448
3.96
15.397
26.914
39.351
53.273
69.577
89.041
111.839
136.31
158.632
174.635
181.795
182.195
179.547
174.893
165.81
141.637
90.701
7.349
-109.65
-247.914
-388.219
-512.75
-600.305
-639.685
-630.033
-573.226
-483.256
-378.421
-273.774
-187.486
-132.507
-110.688
-119.93
-151.075
-186.32
-212.441
-221.636
-209.102
-182.518
-153.141
-126.937
-109.885
-100.744
-92.771
-83.647
-71.985
-58.275
-46.028
-36.524
-29.603
-25.231
-22.636
-21.303
-21.189
-21.974
-23.303
-25.037
-27.074
-29.28
-31.539
-33.698
-35.579
-37.116
-38.288
-39.05
-39.378
-39.257
-38.696
-37.738
-36.444
-34.861
-33.027
-30.972
-28.725
-26.343
-23.886
-21.419
-19.015
-16.716
-14.542
-12.51
-10.611
-8.825
-7.126
-5.476
-3.828
-2.142
-0.384
1.475
3.458
5.592
7.911
10.449
13.244
16.323
19.703
23.398
27.412
31.745
36.392
41.343
46.578
52.081
57.838
63.833
70.054
76.487
83.111
89.907
96.853
103.926
111.102
118.358
125.669
133.01
140.355
147.68
154.961
162.173
169.289
176.283
183.127
189.794
196.258
202.493
208.474
214.177
219.578
224.657
229.393
233.769
237.766
241.369
244.564
247.335
249.672
251.562
252.997
253.968
254.469
254.493
254.038
253.103
251.688
249.795
247.428
244.594
241.3
237.557
233.377
228.773
223.761
218.358
212.583
206.455
199.997
193.232
186.183
178.875
171.333
163.583
155.652
147.567
139.354
131.041
122.656
114.228
105.783
97.35
88.958
80.633
72.402
64.292
56.328
48.534
40.934
33.548
26.397
19.5
12.872
6.528
0.482
-5.256
-10.678
-15.776
-20.546
-24.985
-29.094
-32.873
-36.325
-39.455
-42.27
-44.778
-46.987
-48.908
-50.553
-51.936
-53.07
-53.97
-54.653
-55.135
-55.434
-55.566
-55.551
-55.406
-55.15
-54.8
-54.373
-53.886
-53.355
-52.795
-52.221
-51.646
-51.083
-50.541
-50.032
-49.563
-49.142
-48.773
-48.462
-48.211
-48.022
-47.895
-47.831
-47.826
-47.88
-47.988
-48.146
-48.349
-48.591
-48.867
-49.168
-49.489
-49.82
-50.155
-50.485
-50.802
-51.1
-51.371
-51.607
-51.803
-51.951
-52.047
-52.084
-52.059
-51.967
-51.805
-51.57
-51.261
-50.876
-50.416
-49.881
-49.272
-48.591
-47.842
-47.026
-46.147
-45.21
-44.218
-43.177
-42.091
-40.966
-39.806
-38.619
-37.409
-36.182
-34.944
-33.699
-32.454
-31.212
-29.978
-28.757
-27.55
-26.363
-25.198
-24.059
-22.946
-21.864
-20.813
-19.796
-18.813
-17.865
-16.952
-16.074
-15.231
-14.422
-13.648
-12.906
-12.197
-11.52
-10.873
-10.256
-9.667
-9.105
-8.57
-8.059
-7.572
-7.108
-6.666
-6.246
-5.846
-5.467
-5.109
-4.772
-4.457
-4.163
-3.891
-3.642
-3.415
-3.211
-3.032
-2.876
-2.745
-2.64
-2.561
-2.509
-2.484
-2.486
-2.515
-2.571
-2.653
-2.76
-2.891
-3.046
-3.221
-3.417
-3.63
-3.859
-4.102
-4.356
-4.618
-4.885
-5.155
-5.423
-5.687
-5.943
-6.188
-6.418
-6.63
-6.82
-6.985
-7.122
-7.228
-7.299
-7.333
-7.327
-7.277
-7.181
-7.038
-6.844
-6.6
-6.302
-5.952
-5.549
-5.093
-4.586
-4.028
-3.421
-2.768
-2.071
-1.333
-0.557
0.253
1.093
1.959
2.846
3.75
4.665
5.587
6.511
7.431
8.344
9.242
10.122
10.979
11.806
12.598
13.351
14.058
14.716
15.318
15.861
16.341
16.753
17.094
17.362
17.555
17.671
17.709
17.668
17.549
17.352
17.079
16.731
16.31
15.819
15.261
14.639
13.958
13.221
12.433
11.597
10.72
9.805
8.857
7.883
6.888
5.876
4.856
3.831
2.81
1.798
0.801
-0.173
-1.121
-2.034
-2.91
-3.742
-4.527
-5.261
-5.94
-6.563
-7.126
-7.628
-8.069
-8.447
-8.764
-9.019
-9.213
-9.35
-9.43
-9.456
-9.432
-9.361
-9.246
-9.091
-8.901
-8.68
-8.434
-8.168
-7.889
-7.601
-7.313
-7.03
-6.76
-6.511
-6.288
-6.098
-5.948
-5.843
-5.79
-5.793
-5.857
-5.986
-6.184
-6.455
-6.801
-7.223
-7.724
-8.303
-8.96
-9.695
-10.506
-11.391
-12.347
-13.372
-14.461
-15.611
-16.816
-18.071
-19.371
-20.709
-22.076
-23.465
-24.868
-26.276
-27.678
-29.067
-30.432
-31.764
-33.055
-34.294
-35.473
-36.584
-37.618
-38.566
-39.422
-40.178
-40.827
-41.364
-41.783
-42.079
-42.25
-42.291
-42.199
-41.974
-41.613
-41.117
-40.485
-39.719
-38.818
-37.788
-36.63
-35.349
-33.95
-32.439
-30.823
-29.108
-27.304
-25.417
-23.456
-21.43
-19.347
-17.218
-15.051
-12.856
-10.643
-8.421
-6.201
-3.992
-1.805
0.351
2.467
4.532
6.537
8.472
10.326
12.091
13.757
15.316
16.759
18.079
19.271
20.33
21.251
22.031
22.665
23.15
23.485
23.667
23.695
23.567
23.28
22.84
22.251
21.52
20.65
19.644
18.503
17.231
15.838
14.328
12.71
10.994
9.192
7.329
5.438
3.546
1.676
-0.157
-1.942
-3.663
-5.298
-6.829
-8.241
-9.529
-10.692
-11.722
-12.611
-13.368
-14.023
-14.636
-15.279
-16.01
-16.867
-17.875
-19.066
-20.49
-22.203
-24.251
-26.665
-29.443
-32.606
-36.231
-40.324
-44.786
-49.395
-53.759
-57.488
-60.317
-61.963
-62.083
-60.512
-57.308
-52.81
-47.828
-43.209
-39.554
-37.441
-37.397
-39.563
-43.667
-48.929
-53.715
-56.134
-54.523
-47.113
-32.263
-8.905
23.432
64.4
112.334
164.71
218.494
269.885
314.891
349.429
369.385
371.311
352.572
313.384
257.24
187.591
107.996
18.252
-85.916
-202.098
-321.786
-429.413
-503.426
-533.188
-520.042
-473.035
-407.669
-335.185
-260.014
-187.061
-124.941
-81.207
-62.601
-70.401
-91.227
-110.828
-119.36
-109.1
-86.431
-61.89
-40.387
-27.292
-21.094
-15.372
-8.172
1.789
14.214
25.749
34.89
41.538
45.487
47.32
47.598
46.398
44.027
41.019
37.71
34.347
31.199
28.418
26.105
24.386
23.289
22.761
22.797
23.385
24.497
26.105
28.146
30.537
33.203
36.08
39.095
42.164
45.191
48.076
50.749
53.172
55.325
57.204
58.807
60.145
61.247
62.153
62.907
63.547
64.109
64.624
65.128
65.665
66.279
67.017
67.913
68.993
70.278
71.783
73.52
75.497
77.714
80.165
82.846
85.756
88.894
92.26
95.851
99.661
103.684
107.911
112.332
116.939
121.721
126.667
131.763
136.998
142.359
147.831
153.4
159.049
164.758
170.506
176.272
182.034
187.769
193.451
199.059
204.566
209.951
215.188
220.255
225.129
229.786
234.204
238.361
242.235
245.806
249.055
251.963
254.513
256.689
258.476
259.86
260.832
261.38
261.496
261.175
260.41
259.199
257.541
255.437
252.889
249.902
246.484
242.643
238.389
233.735
228.697
223.29
217.531
211.441
205.039
198.347
191.39
184.19
176.774
169.167
161.396
153.488
145.471
137.373
129.221
121.042
112.864
104.713
96.616
88.599
80.685
72.9
65.265
57.803
50.534
43.477
36.649
30.067
23.745
17.696
11.931
6.459
1.287
-3.58
-8.137
-12.384
-16.32
-19.947
-23.269
-26.291
-29.019
-31.462
-33.629
-35.529
-37.176
-38.579
-39.754
-40.712
-41.467
-42.035
-42.428
-42.663
-42.752
-42.712
-42.555
-42.297
-41.95
-41.529
-41.047
-40.516
-39.948
-39.354
-38.746
-38.132
-37.521
-36.923
-36.342
-35.786
-35.26
-34.767
-34.311
-33.893
-33.516
-33.18
-32.884
-32.629
-32.412
-32.233
-32.089
-31.978
-31.897
-31.845
-31.818
-31.815
-31.832
-31.868
-31.92
-31.987
-32.066
-32.155
-32.252
-32.356
-32.466
-32.579
-32.695
-32.812
-32.931
-33.049
-33.168
-33.286
-33.404
-33.522
-33.64
-33.759
-33.879
-34.002
-34.129
-34.259
-34.395
-34.537
-34.687
-34.844
-35.01
-35.184
-35.367
-35.558
-35.756
-35.961
-36.172
-36.387
-36.605
-36.824
-37.042
-37.258
-37.468
-37.672
-37.867
-38.051
-38.222
-38.378
-38.519
-38.643
-38.748
-38.835
-38.901
-38.948
-38.975
-38.983
-38.971
-38.941
-38.894
-38.829
-38.75
-38.658
-38.555
-38.442
-38.32
-38.193
-38.062
-37.931
-37.802
-37.678
-37.563
-37.459
-37.37
-37.298
-37.247
-37.218
-37.212
-37.231
-37.277
-37.352
-37.458
-37.598
-37.768
-37.966
-38.189
-38.436
-38.702
-38.986
-39.281
-39.583
-39.888
-40.196
-40.503
-40.811
-41.113
-41.403
-41.673
-41.915
-42.132
-42.33
-42.514
-42.693
-42.857
-42.991
-43.098
-43.176
-43.223
-43.26
-43.247
-43.138
-43.003
-42.886
-42.842
-42.959
-43.143
-43.26
-43.36
-43.473
-43.447
-43.209
-42.568
-41.279
-39.593
-37.796
-35.894
-33.963
-32.187
-30.634
-29.619
-29.507
-29.992
-30.756
-31.742
-32.787
-33.795
-34.772
-35.437
-35.495
-35.175
-34.692
-34.124
-33.639
-33.232
-32.853
-32.646
-32.744
-33.054
-33.503
-34.041
-34.58
-35.151
-35.797
-36.482
-37.186
-37.918
-38.673
-39.463
-40.305
-41.179
-42.068
-42.963
-43.854
-44.74
-45.624
-46.501
-47.369
-48.224
-49.063
-49.885
-50.688
-51.471
-52.233
-52.973
-53.69
-54.385
-55.058
-55.709
-56.341
-56.951
-57.539
-58.104
-58.645
-59.162
-59.658
-60.133
-60.588
-61.025
-61.444
-61.849
-62.24
-62.62
-62.989
-63.35
-63.704
-64.051
-64.393
-64.732
-65.069
-65.405
-65.741
-66.077
-66.414
-66.752
-67.092
-67.434
-67.777
-68.122
-68.469
-68.817
-69.168
-69.519
-69.873
-70.227
-70.582
-70.938
-71.292
-71.645
-71.995
-72.34
-72.679
-73.011
-73.334
-73.647
-73.948
-74.237
-74.511
-74.771
-75.013
-75.237
-75.443
-75.627
-75.791
-75.932
-76.05
-76.144
-76.215
-76.261
-76.283
-76.281
-76.255
-76.204
-76.128
-76.028
-75.904
-75.757
-75.586
-75.393
-75.18
-74.947
-74.695
-74.427
-74.143
-73.844
-73.532
-73.207
-72.87
-72.521
-72.16
-71.789
-71.406
-71.012
-70.606
-70.189
-69.759
-69.316
-68.858
-68.384
-67.891
-67.378
-66.843
-66.282
-65.693
-65.075
-64.425
-63.74
-63.018
-62.256
-61.451
-60.6
-59.7
-58.747
-57.739
-56.673
-55.547
-54.357
-53.103
-51.784
-50.399
-48.949
-47.435
-45.857
-44.216
-42.515
-40.757
-38.944
-37.081
-35.173
-33.224
-31.242
-29.235
-27.211
-25.181
-23.155
-21.142
-19.151
-17.192
-15.277
-13.417
-11.622
-9.898
-8.254
-6.702
-5.251
-3.913
-2.694
-1.6
-0.634
0.201
0.9
1.459
1.878
2.161
2.315
2.342
2.245
2.017
1.658
1.174
0.576
-0.127
-0.923
-1.804
-2.756
-3.754
-4.772
-5.783
-6.76
-7.693
-8.575
-9.404
-10.181
-10.885
-11.476
-11.921
-12.211
-12.349
-12.37
-12.28
-12.027
-11.647
-11.283
-11.168
-11.568
-12.592
-14.119
-16.043
-18.445
-21.305
-24.374
-27.045
-28.428
-28.02
-25.955
-22.592
-18.034
-12.429
-6.247
-0.609
2.717
2.493
-1.375
-8.289
-17.721
-29.126
-41.552
-53.217
-61.38
-63.674
-59.078
-47.58
-29.294
-4.218
27.233
63.753
103.099
143.037
182.361
220.922
257.218
287.84
310.163
321.892
325.005
326.108
326.938
326.784
319.603
290.678
232.611
141.444
17.718
-121.389
-259.596
-378.52
-456.879
-492.417
-487.921
-451.453
-401.107
-342.671
-280.727
-222.229
-166.999
-121.801
-90.671
-69.063
-55.18
-43.781
-31.747
-22.809
-18.247
-18.572
-23.068
-27.726
-30.062
-29.598
-26.418
-21.473
-15.625
-9.217
-2.775
2.922
7.172
9.68
10.541
10.067
8.682
6.698
4.375
2.088
0.227
-0.968
-1.396
-1.07
-0.087
1.487
3.611
6.211
9.185
12.425
15.818
19.26
22.666
25.971
29.114
32.042
34.711
37.091
39.17
40.959
42.478
43.745
44.784
45.626
46.301
46.851
47.321
47.762
48.227
48.76
49.393
50.157
51.075
52.173
53.47
54.986
56.726
58.694
60.893
63.317
65.977
68.893
72.082
75.564
79.337
83.371
87.657
92.2
97.001
102.08
107.401
112.853
118.447
124.288
130.461
137.093
144.139
151.323
158.534
165.849
173.128
180.107
186.468
191.698
195.756
199.188
202.289
205.132
207.972
211.056
214.777
219.869
226.406
233.703
241.314
248.927
256.19
262.959
268.908
273.402
276.348
278.195
279.221
279.659
279.671
279.18
278.256
277.143
275.826
274.102
271.866
269.035
265.613
261.722
257.402
252.617
247.394
241.785
235.843
229.628
223.162
216.437
209.479
202.345
195.102
187.804
180.463
173.058
165.577
158.019
150.396
142.719
134.991
127.215
119.406
111.592
103.809
96.078
88.413
80.811
73.269
65.795
58.411
51.149
44.037
37.1
30.356
23.828
17.542
11.517
5.765
0.286
-4.918
-9.845
-14.486
-18.833
-22.878
-26.619
-30.055
-33.187
-36.018
-38.551
-40.789
-42.741
-44.413
-45.815
-46.952
-47.828
-48.45
-48.825
-48.963
-48.873
-48.566
-48.052
-47.345
-46.457
-45.405
-44.2
-42.858
-41.392
-39.817
-38.147
-36.395
-34.577
-32.705
-30.794
-28.858
-26.909
-24.961
-23.026
-21.115
-19.24
-17.411
-15.639
-13.932
-12.298
-10.746
-9.283
-7.915
-6.648
-5.488
-4.437
-3.499
-2.676
-1.97
-1.381
-0.907
-0.546
-0.297
-0.156
-0.119
-0.182
-0.341
-0.588
-0.92
-1.33
-1.811
-2.358
-2.961
-3.616
-4.313
-5.047
-5.809
-6.594
-7.394
-8.203
-9.015
-9.823
-10.622
-11.407
-12.172
-12.914
-13.628
-14.311
-14.96
-15.574
-16.152
-16.693
-17.197
-17.666
-18.1
-18.502
-18.873
-19.215
-19.532
-19.827
-20.102
-20.361
-20.609
-20.849
-21.084
-21.32
-21.56
-21.808
-22.069
-22.345
-22.641
-22.959
-23.305
-23.68
-24.088
-24.531
-25.013
-25.535
-26.099
-26.707
-27.359
-28.055
-28.795
-29.579
-30.406
-31.274
-32.181
-33.127
-34.107
-35.122
-36.167
-37.242
-38.342
-39.467
-40.613
-41.778
-42.96
-44.156
-45.364
-46.582
-47.808
-49.04
-50.275
-51.513
-52.751
-53.987
-55.219
-56.446
-57.665
-58.875
-60.074
-61.26
-62.432
-63.588
-64.729
-65.851
-66.955
-68.039
-69.103
-70.145
-71.165
-72.16
-73.131
-74.074
-74.989
-75.874
-76.727
-77.546
-78.328
-79.072
-79.774
-80.431
-81.042
-81.602
-82.11
-82.561
-82.955
-83.287
-83.555
-83.759
-83.895
-83.963
-83.96
-83.887
-83.742
-83.524
-83.234
-82.872
-82.438
-81.932
-81.357
-80.713
-80.003
-79.229
-78.394
-77.5
-76.553
-75.554
-74.51
-73.423
-72.3
-71.146
-69.966
-68.767
-67.554
-66.335
-65.116
-63.905
-62.707
-61.529
-60.379
-59.262
-58.186
-57.155
-56.176
-55.255
-54.395
-53.603
-52.883
-52.239
-51.674
-51.192
-50.796
-50.487
-50.268
-50.139
-50.101
-50.154
-50.299
-50.535
-50.86
-51.274
-51.775
-52.36
-53.026
-53.771
-54.592
-55.482
-56.439
-57.457
-58.53
-59.654
-60.822
-62.029
-63.269
-64.536
-65.823
-67.126
-68.438
-69.753
-71.064
-72.366
-73.653
-74.919
-76.158
-77.367
-78.539
-79.67
-80.755
-81.789
-82.769
-83.69
-84.548
-85.337
-86.056
-86.699
-87.264
-87.747
-88.146
-88.457
-88.681
-88.816
-88.862
-88.819
-88.687
-88.467
-88.161
-87.769
-87.29
-86.725
-86.072
-85.334
-84.513
-83.611
-82.63
-81.573
-80.442
-79.243
-77.984
-76.669
-75.301
-73.88
-72.406
-70.887
-69.338
-67.774
-66.201
-64.631
-63.071
-61.538
-60.05
-58.618
-57.236
-55.901
-54.604
-53.35
-52.155
-51.03
-49.988
-49.03
-48.137
-47.304
-46.539
-45.836
-45.192
-44.589
-43.987
-43.382
-42.799
-42.254
-41.765
-41.326
-40.901
-40.475
-40.04
-39.6
-39.178
-38.777
-38.376
-37.976
-37.585
-37.227
-36.961
-36.803
-36.721
-36.703
-36.745
-36.873
-37.16
-37.643
-38.323
-39.195
-40.242
-41.471
-42.921
-44.607
-46.508
-48.576
-50.731
-52.937
-55.211
-57.564
-59.984
-62.393
-64.673
-66.773
-68.634
-70.158
-71.156
-71.277
-70.144
-67.507
-63.239
-57.32
-49.965
-41.52
-32.513
-23.785
-16.238
-10.662
-7.505
-6.763
-7.847
-9.764
-11.333
-11.083
-7.341
1.54
16.627
38.245
65.698
97.428
131.757
166.679
199.514
227.229
246.992
256.33
253.975
239.772
213.354
174.487
123.907
63.135
-4.419
-73.577
-140.727
-204.094
-264.794
-325.648
-385.381
-438.615
-475.403
-484.59
-462.563
-411.474
-337.765
-252.726
-163.951
-79.023
-10.562
33.627
47.034
28.736
-7.511
-46.427
-72.664
-74.877
-55.94
-24.735
6.827
28.101
36.762
35.427
29.713
24.249
19.825
15.809
10.766
4.406
-1.585
-5.58
-6.647
-4.474
0.407
6.936
14.4
22.088
28.907
34.151
37.541
39
39.02
38.432
37.684
37.103
37.094
37.79
39.227
41.408
44.035
46.703
49.214
51.457
53.377
55.036
56.451
57.618
58.612
59.517
60.386
61.264
62.166
63.092
64.075
65.154
66.367
67.75
69.325
71.102
73.089
75.292
77.711
80.349
83.206
86.286
89.593
93.13
96.897
100.896
105.117
109.552
114.189
119.015
124.016
129.18
134.494
139.949
145.532
151.231
157.029
162.91
168.856
174.846
180.861
186.879
192.878
198.835
204.729
210.541
216.248
221.829
227.263
232.528
237.604
242.47
247.105
251.49
255.605
259.434
262.959
266.166
269.039
271.567
273.737
275.539
276.964
278.005
278.655
278.909
278.763
278.214
277.263
275.908
274.154
272.002
269.459
266.531
263.227
259.555
255.526
251.152
246.447
241.423
236.098
230.487
224.608
218.481
212.124
205.558
198.805
191.885
184.822
177.635
170.349
162.983
155.561
148.103
140.632
133.168
125.732
118.343
111.022
103.787
96.656
89.646
82.771
76.048
69.49
63.109
56.917
50.925
45.142
39.575
34.232
29.119
24.24
19.598
15.195
11.031
7.105
3.417
-0.037
-3.26
-6.257
-9.032
-11.593
-13.944
-16.092
-18.046
-19.812
-21.398
-22.813
-24.063
-25.158
-26.104
-26.91
-27.583
-28.13
-28.558
-28.874
-29.082
-29.191
-29.204
-29.128
-28.967
-28.726
-28.409
-28.02
-27.562
-27.038
-26.451
-25.803
-25.096
-24.332
-23.511
-22.636
-21.708
-20.728
-19.696
-18.615
-17.486
-16.31
-15.09
-13.828
-12.525
-11.186
-9.814
-8.413
-6.987
-5.54
-4.079
-2.609
-1.136
0.334
1.794
3.238
4.659
6.049
7.401
8.709
9.966
11.165
12.299
13.361
14.345
15.245
16.056
16.771
17.387
17.897
18.299
18.59
18.766
18.827
18.771
18.598
18.31
17.908
17.395
16.773
16.048
15.225
14.308
13.306
12.225
11.072
9.857
8.587
7.272
5.921
4.542
3.145
1.738
0.33
-1.069
-2.453
-3.811
-5.138
-6.425
-7.665
-8.852
-9.98
-11.044
-12.04
-12.963
-13.812
-14.583
-15.277
-15.892
-16.429
-16.888
-17.274
-17.586
-17.831
-18.01
-18.13
-18.196
-18.212
-18.186
-18.124
-18.031
-17.914
-17.781
-17.635
-17.484
-17.334
-17.19
-17.056
-16.939
-16.843
-16.772
-16.73
-16.72
-16.746
-16.81
-16.914
-17.058
-17.245
-17.473
-17.744
-18.057
-18.41
-18.802
-19.231
-19.696
-20.193
-20.719
-21.271
-21.846
-22.441
-23.052
-23.675
-24.308
-24.948
-25.593
-26.239
-26.884
-27.528
-28.168
-28.802
-29.43
-30.052
-30.666
-31.273
-31.873
-32.467
-33.055
-33.639
-34.219
-34.796
-35.373
-35.951
-36.531
-37.114
-37.702
-38.298
-38.902
-39.516
-40.141
-40.779
-41.431
-42.097
-42.778
-43.474
-44.183
-44.906
-45.641
-46.386
-47.141
-47.901
-48.666
-49.431
-50.195
-50.952
-51.699
-52.431
-53.145
-53.835
-54.496
-55.124
-55.713
-56.26
-56.76
-57.207
-57.597
-57.926
-58.189
-58.381
-58.498
-58.536
-58.492
-58.362
-58.145
-57.839
-57.442
-56.953
-56.373
-55.7
-54.936
-54.082
-53.139
-52.109
-50.994
-49.799
-48.526
-47.181
-45.769
-44.296
-42.768
-41.19
-39.57
-37.915
-36.232
-34.53
-32.816
-31.099
-29.389
-27.696
-26.029
-24.401
-22.823
-21.304
-19.855
-18.486
-17.209
-16.031
-14.96
-14.004
-13.168
-12.46
-11.886
-11.452
-11.163
-11.025
-11.043
-11.223
-11.566
-12.075
-12.749
-13.58
-14.566
-15.7
-16.976
-18.394
-19.95
-21.636
-23.445
-25.368
-27.391
-29.499
-31.666
-33.859
-36.048
-38.205
-40.31
-42.352
-44.324
-46.223
-48.047
-49.78
-51.415
-52.951
-54.387
-55.726
-56.971
-58.136
-59.256
-60.392
-61.606
-62.944
-64.436
-66.094
-67.907
-69.863
-71.969
-74.235
-76.657
-79.258
-82.038
-84.935
-87.907
-90.81
-93.321
-95.12
-95.864
-95.172
-92.907
-89.194
-84.116
-78.105
-72.161
-67.039
-63.46
-62.441
-63.066
-64.033
-66.022
-67.954
-70.69
-75.878
-78.508
-74.994
-61.592
-33.768
3.543
44.838
85.507
119.675
147.71
169.715
184.533
191.403
185.921
166.478
133.991
90.364
43.365
-2.955
-51.289
-105.785
-177.674
-272.938
-382.3
-489.791
-570.716
-604.772
-589.916
-535.981
-463.097
-390.471
-326.44
-271.94
-222.491
-175.223
-131.936
-95.923
-71.033
-58.426
-56.228
-61.613
-70.871
-80.532
-88.223
-92.407
-92.241
-87.726
-79.228
-67.433
-53.918
-40.482
-28.582
-19.183
-12.649
-8.875
-7.759
-9.174
-12.424
-16.681
-21.198
-25.337
-28.854
-31.713
-33.807
-35.021
-35.43
-35.131
-34.231
-32.879
-31.098
-28.891
-26.311
-23.407
-20.237
-16.887
-13.465
-10.075
-6.815
-3.75
-0.916
1.658
3.956
5.972
7.723
9.245
10.575
11.746
12.787
13.722
14.593
15.448
16.344
17.338
18.474
19.78
21.283
23.003
24.955
27.149
29.584
32.253
35.153
38.282
41.642
45.234
49.055
53.097
57.354
61.817
66.478
71.33
76.36
81.559
86.915
92.417
98.053
103.811
109.676
115.63
121.657
127.735
133.843
139.961
146.065
152.131
158.135
164.051
169.856
175.526
181.035
186.36
191.476
196.362
200.995
205.352
209.414
213.158
216.567
219.621
222.303
224.596
226.486
227.96
229.007
229.618
229.787
229.51
228.784
227.608
225.986
223.92
221.417
218.482
215.123
211.351
207.176
202.614
197.678
192.386
186.758
180.816
174.585
168.092
161.363
154.424
147.304
140.028
132.625
125.123
117.547
109.926
102.287
94.664
87.092
79.605
72.228
64.981
57.879
50.929
44.14
37.521
31.07
24.793
18.702
12.816
7.168
1.79
-3.298
-8.085
-12.575
-16.774
-20.669
-24.249
-27.5
-30.395
-32.911
-35.025
-36.691
-37.884
-38.608
-38.885
-38.778
-38.361
-37.69
-36.804
-35.737
-34.512
-33.172
-31.762
-30.317
-28.892
-27.539
-26.321
-25.334
-24.65
-24.298
-24.283
-24.563
-25.069
-25.76
-26.605
-27.572
-28.645
-29.798
-31.005
-32.255
-33.533
-34.809
-36.043
-37.169
-38.126
-38.894
-39.472
-39.887
-40.192
-40.416
-40.585
-40.726
-40.855
-40.984
-41.123
-41.262
-41.39
-41.506
-41.62
-41.754
-41.928
-42.148
-42.407
-42.689
-42.97
-43.23
-43.455
-43.624
-43.725
-43.75
-43.693
-43.562
-43.367
-43.113
-42.8
-42.428
-41.993
-41.497
-40.944
-40.336
-39.679
-38.977
-38.234
-37.457
-36.656
-35.835
-35
-34.155
-33.3
-32.439
-31.577
-30.717
-29.864
-29.019
-28.185
-27.364
-26.562
-25.788
-25.049
-24.347
-23.682
-23.051
-22.45
-21.878
-21.333
-20.812
-20.311
-19.825
-19.356
-18.909
-18.495
-18.116
-17.773
-17.458
-17.158
-16.873
-16.611
-16.398
-16.262
-16.215
-16.248
-16.341
-16.485
-16.684
-16.957
-17.286
-17.599
-17.878
-18.193
-18.716
-19.638
-21.003
-22.651
-24.385
-26.145
-27.842
-29.253
-29.934
-29.334
-27.239
-23.949
-20.013
-15.789
-11.535
-7.579
-4.491
-3.041
-3.61
-5.895
-9.171
-12.875
-16.665
-20.269
-23.299
-25.147
-25.443
-24.356
-22.431
-20.142
-17.748
-15.365
-13.089
-11.167
-9.799
-8.953
-8.412
-7.968
-7.518
-7.061
-6.653
-6.291
-5.943
-5.608
-5.32
-5.122
-5.041
-5.07
-5.18
-5.347
-5.565
-5.839
-6.177
-6.585
-7.064
-7.612
-8.227
-8.909
-9.66
-10.478
-11.364
-12.314
-13.327
-14.4
-15.533
-16.725
-17.973
-19.269
-20.605
-21.972
-23.362
-24.767
-26.18
-27.595
-29.001
-30.39
-31.754
-33.085
-34.372
-35.607
-36.781
-37.884
-38.906
-39.84
-40.677
-41.411
-42.033
-42.537
-42.916
-43.162
-43.271
-43.238
-43.06
-42.732
-42.254
-41.624
-40.845
-39.919
-38.848
-37.637
-36.291
-34.815
-33.219
-31.509
-29.695
-27.789
-25.8
-23.743
-21.63
-19.476
-17.296
-15.104
-12.917
-10.75
-8.619
-6.542
-4.534
-2.611
-0.791
0.912
2.482
3.902
5.16
6.242
7.136
7.831
8.318
8.587
8.636
8.462
8.066
7.452
6.624
5.59
4.359
2.94
1.341
-0.428
-2.362
-4.451
-6.685
-9.052
-11.536
-14.12
-16.792
-19.537
-22.345
-25.206
-28.115
-31.063
-34.04
-37.025
-39.99
-42.904
-45.73
-48.429
-50.959
-53.287
-55.393
-57.265
-58.898
-60.281
-61.378
-62.165
-62.626
-62.756
-62.583
-62.154
-61.496
-60.68
-59.811
-58.922
-58.005
-56.967
-55.543
-53.506
-50.717
-46.984
-42.23
-36.672
-30.66
-24.805
-20.019
-16.957
-16.122
-18.086
-22.958
-30.225
-39.013
-47.898
-55.146
-59.427
-59.367
-53.377
-40.56
-20.825
5.204
36.058
69.906
104.918
138.537
167.472
188.733
199.858
198.843
184.19
154.968
110.862
54.041
-10.852
-80.752
-153.074
-226.321
-301.205
-371.706
-428.977
-466.982
-477.409
-461.12
-424.472
-367.721
-296.917
-216.564
-131.073
-57.867
-9.995
3.839
-19.012
-62.11
-106.744
-135.602
-136.008
-112.546
-76.215
-40.274
-16.573
-6.634
-6.256
-9.111
-9.937
-7.777
-4.286
-1.772
-1.247
-2.291
-4.085
-5.807
-7.124
-8.101
-8.679
-8.759
-8.333
-7.356
-5.818
-3.738
-1.121
2.014
5.601
9.539
13.732
18.06
22.393
26.637
30.717
34.571
38.161
41.453
44.425
47.072
49.408
51.439
53.179
54.647
55.868
56.886
57.753
58.526
59.263
60.01
60.805
61.677
62.65
63.742
64.964
66.323
67.818
69.452
71.234
73.167
75.256
77.501
79.898
82.444
85.133
87.958
90.915
93.996
97.196
100.512
103.937
107.468
111.1
114.826
118.638
122.525
126.477
130.48
134.523
138.591
142.671
146.748
150.808
154.836
158.82
162.744
166.595
170.357
174.017
177.558
180.968
184.23
187.332
190.258
192.997
195.535
197.86
199.961
201.827
203.448
204.815
205.917
206.747
207.297
207.56
207.528
207.198
206.564
205.623
204.373
202.813
200.941
198.76
196.27
193.475
190.377
186.982
183.296
179.325
175.079
170.566
165.799
160.79
155.551
150.098
144.446
138.612
132.611
126.463
120.186
113.799
107.322
100.775
94.18
87.557
80.928
74.314
67.738
61.219
54.779
48.438
42.216
36.132
30.204
24.452
18.89
13.535
8.402
3.503
-1.15
-5.546
-9.677
-13.537
-17.121
-20.425
-23.448
-26.19
-28.653
-30.839
-32.753
-34.401
-35.791
-36.932
-37.833
-38.507
-38.964
-39.219
-39.286
-39.179
-38.913
-38.503
-37.966
-37.317
-36.572
-35.748
-34.859
-33.922
-32.952
-31.964
-30.971
-29.988
-29.026
-28.097
-27.211
-26.378
-25.606
-24.901
-24.269
-23.716
-23.245
-22.859
-22.56
-22.348
-22.224
-22.186
-22.233
-22.362
-22.569
-22.851
-23.204
-23.624
-24.105
-24.643
-25.233
-25.87
-26.55
-27.266
-28.016
-28.792
-29.592
-30.41
-31.243
-32.087
-32.938
-33.795
-34.654
-35.514
-36.374
-37.233
-38.09
-38.944
-39.796
-40.645
-41.492
-42.336
-43.179
-44.02
-44.861
-45.701
-46.542
-47.383
-48.223
-49.063
-49.901
-50.736
-51.565
-52.386
-53.197
-53.994
-54.775
-55.534
-56.269
-56.975
-57.647
-58.28
-58.87
-59.411
-59.897
-60.324
-60.685
-60.977
-61.193
-61.33
-61.383
-61.35
-61.227
-61.011
-60.702
-60.297
-59.797
-59.202
-58.514
-57.734
-56.866
-55.913
-54.882
-53.778
-52.607
-51.379
-50.1
-48.781
-47.43
-46.058
-44.676
-43.294
-41.923
-40.575
-39.262
-37.995
-36.785
-35.643
-34.579
-33.603
-32.724
-31.95
-31.289
-30.745
-30.326
-30.034
-29.874
-29.848
-29.957
-30.199
-30.573
-31.073
-31.697
-32.438
-33.29
-34.245
-35.293
-36.425
-37.629
-38.897
-40.216
-41.571
-42.944
-44.318
-45.677
-47.009
-48.299
-49.535
-50.701
-51.779
-52.756
-53.622
-54.364
-54.972
-55.431
-55.728
-55.853
-55.811
-55.607
-55.252
-54.749
-54.098
-53.298
-52.349
-51.266
-50.075
-48.795
-47.451
-46.049
-44.581
-43.073
-41.549
-40.009
-38.467
-36.875
-35.134
-33.303
-31.527
-29.91
-28.636
-27.767
-27.109
-26.661
-26.588
-26.698
-26.661
-26.12
-24.36
-21.017
-16.702
-11.994
-6.982
-2.331
2.066
7.41
12.186
14.238
11.583
-0.568
-21.646
-45.279
-65.35
-72.901
-65.539
-50.574
-34.776
-25.496
-25.044
-28.132
-31.285
-32.613
-32.094
-32.459
-34.523
-37.514
-40.917
-44.073
-46.831
-49.426
-51.669
-53.299
-54.371
-55.128
-55.806
-56.497
-57.147
-57.633
-57.929
-58.098
-58.161
-58.096
-57.867
-57.457
-56.884
-56.197
-55.434
-54.608
-53.73
-52.799
-51.823
-50.814
-49.785
-48.746
-47.712
-46.692
-45.696
-44.732
-43.805
-42.921
-42.083
-41.293
-40.551
-39.856
-39.205
-38.599
-38.044
-37.547
-37.122
-36.775
-36.507
-36.313
-36.187
-36.117
-36.094
-36.096
-36.095
-36.061
-35.978
-35.835
-35.634
-35.371
-35.034
-34.604
-34.06
-33.394
-32.6
-31.68
-30.644
-29.511
-28.319
-27.121
-25.976
-24.944
-24.084
-23.442
-23.067
-23.01
-23.264
-23.84
-24.773
-26.013
-27.493
-29.081
-30.459
-31.328
-31.556
-31.003
-29.58
-27.407
-24.54
-21.21
-18.095
-15.809
-14.669
-14.824
-15.996
-17.508
-18.897
-19.498
-18.049
-13.278
-4.076
10.329
29.825
53.592
80.956
110.945
141.808
171.322
196.761
215.371
225.186
224.884
213.074
188.784
151.975
103.71
46.436
-16.684
-82.531
-147.838
-208.876
-261.918
-303.713
-332.225
-347
-348.343
-336.967
-314.329
-282.633
-244.872
-204.467
-164.027
-125.19
-89.431
-58.011
-31.859
-11.709
2.708
12.439
18.011
19.687
17.883
12.892
5.402
-3.296
-12.445
-21.614
-29.89
-36.583
-41.094
-42.508
-40.559
-35.773
-28.605
-19.764
-10.375
-1.096
7.503
14.538
19.641
22.914
24.487
24.911
24.99
25.105
25.53
26.638
28.495
31.056
34.298
37.952
41.663
45.279
48.687
51.811
54.69
57.336
59.73
61.925
63.971
65.893
67.722
69.467
71.125
72.719
74.275
75.815
77.366
78.946
80.565
82.233
83.953
85.728
87.563
89.467
91.449
93.519
95.683
97.945
100.312
102.784
105.362
108.042
110.821
113.694
116.661
119.721
122.873
126.117
129.449
132.862
136.349
139.904
143.516
147.177
150.875
154.599
158.339
162.087
165.831
169.559
173.257
176.909
180.497
184.006
187.418
190.713
193.872
196.878
199.716
202.375
204.838
207.092
209.116
210.889
212.393
213.62
214.559
215.199
215.541
215.586
215.348
214.853
214.117
213.147
211.942
210.49
208.782
206.813
204.575
202.061
199.261
196.162
192.76
189.06
185.048
180.702
175.983
170.826
165.194
159.08
152.492
145.463
138.033
130.248
122.178
113.912
105.528
97.101
88.69
80.335
72.098
64.061
56.319
48.999
42.192
35.952
30.318
25.308
20.914
17.115
13.854
11.034
8.58
6.435
4.554
2.918
1.488
0.208
-0.987
-2.174
-3.415
-4.745
-6.2
-7.801
-9.549
-11.43
-13.399
-15.381
-17.321
-19.185
-20.95
-22.613
-24.164
-25.582
-26.855
-27.969
-28.913
-29.684
-30.273
-30.672
-30.885
-30.93
-30.835
-30.644
-30.392
-30.098
-29.779
-29.447
-29.11
-28.776
-28.448
-28.119
-27.789
-27.463
-27.147
-26.853
-26.586
-26.341
-26.114
-25.896
-25.683
-25.474
-25.265
-25.049
-24.828
-24.607
-24.383
-24.159
-23.939
-23.719
-23.499
-23.274
-23.034
-22.791
-22.623
-22.602
-22.761
-23.093
-23.548
-24.094
-24.743
-25.502
-26.159
-26.415
-26.346
-26.104
-25.86
-26.084
-25.936
-24.629
-23.392
-22.484
-24.379
-31.494
-40.724
-51.349
-59.349
-58.6
-50.529
-33.009
-9.102
11.089
23.829
22.729
7.611
-11.605
-29.059
-38.818
-39.238
-36.126
-32.606
-30.293
-29.683
-28.668
-26.699
-24.332
-21.771
-19.503
-17.7
-16.287
-15.355
-14.898
-14.697
-14.535
-14.314
-14.049
-13.829
-13.707
-13.666
-13.686
-13.791
-14.026
-14.416
-14.957
-15.613
-16.352
-17.163
-18.049
-19.021
-20.079
-21.22
-22.438
-23.727
-25.082
-26.499
-27.974
-29.502
-31.076
-32.691
-34.342
-36.025
-37.737
-39.473
-41.224
-42.98
-44.73
-46.465
-48.177
-49.86
-51.506
-53.108
-54.658
-56.15
-57.578
-58.938
-60.221
-61.424
-62.541
-63.566
-64.498
-65.332
-66.069
-66.705
-67.24
-67.674
-68.008
-68.243
-68.381
-68.425
-68.377
-68.24
-68.021
-67.722
-67.349
-66.908
-66.403
-65.84
-65.225
-64.563
-63.859
-63.12
-62.349
-61.554
-60.739
-59.909
-59.071
-58.229
-57.389
-56.554
-55.731
-54.922
-54.131
-53.361
-52.615
-51.893
-51.198
-50.531
-49.89
-49.277
-48.689
-48.126
-47.585
-47.064
-46.559
-46.067
-45.586
-45.111
-44.64
-44.169
-43.697
-43.222
-42.742
-42.258
-41.766
-41.266
-40.756
-40.235
-39.699
-39.147
-38.575
-37.982
-37.367
-36.733
-36.08
-35.413
-34.736
-34.053
-33.37
-32.697
-32.039
-31.399
-30.782
-30.193
-29.642
-29.145
-28.71
-28.342
-28.042
-27.812
-27.648
-27.55
-27.507
-27.497
-27.499
-27.494
-27.476
-27.454
-27.433
-27.413
-27.395
-27.376
-27.368
-27.404
-27.504
-27.686
-27.97
-28.373
-28.937
-29.731
-30.805
-32.192
-33.9
-35.903
-38.181
-40.727
-43.513
-46.493
-49.604
-52.747
-55.85
-58.868
-61.738
-64.391
-66.726
-68.61
-69.947
-70.683
-70.784
-70.257
-69.099
-67.288
-64.853
-61.854
-58.37
-54.504
-50.326
-45.861
-41.175
-36.369
-31.552
-26.87
-22.419
-18.251
-14.412
-10.936
-7.856
-5.221
-3.03
-1.24
0.182
1.275
2.047
2.461
2.538
2.344
1.94
1.407
0.794
0.118
-0.583
-1.261
-1.883
-2.411
-2.84
-3.197
-3.486
-3.697
-3.801
-3.741
-3.509
-3.142
-2.673
-2.148
-1.605
-1.065
-0.585
-0.224
-0.032
-0.057
-0.329
-0.859
-1.683
-2.82
-4.327
-6.316
-8.775
-11.586
-14.554
-17.339
-19.648
-21.32
-22.078
-21.575
-19.776
-16.83
-13.156
-9.641
-6.926
-5.308
-5.238
-7.029
-10.446
-15.028
-19.742
-22.74
-22.6
-18.256
-8.333
8.113
31.359
61.346
97.031
136.334
177.361
217.932
254.973
285.479
306.712
316.323
312.699
294.738
261.853
214.341
155.023
88.887
19.216
-51.803
-123.341
-196.927
-268.011
-327.795
-368.831
-382.49
-369.088
-337.659
-296.298
-254.83
-217.808
-182.555
-148.104
-113.676
-80.107
-51.521
-29.747
-14.377
-4.655
1.03
3.872
4.223
3.054
1.987
1.968
3.327
6.052
9.665
13.78
18.246
22.548
25.823
27.583
27.679
26.204
23.556
20.086
16.051
11.848
7.95
4.678
2.204
0.586
-0.251
-0.357
0.244
1.481
3.255
5.477
8.059
10.92
14
17.211
20.44
23.585
26.569
29.338
31.866
34.145
36.164
37.927
39.454
40.772
41.915
42.914
43.799
44.605
45.372
46.149
46.988
47.931
49.008
50.241
51.641
53.22
54.985
56.94
59.083
61.412
63.928
66.635
69.538
72.637
75.928
79.404
83.051
86.862
90.832
94.954
99.228
103.648
108.205
112.891
117.695
122.596
127.568
132.574
137.57
142.52
147.398
152.179
156.854
161.412
165.841
170.135
174.292
178.311
182.193
185.933
189.517
192.94
196.228
199.411
202.471
205.384
208.135
210.709
213.123
215.398
217.479
219.314
221.103
223.044
225
226.9
228.684
229.934
231.491
233.943
235.593
235.936
232.561
222.752
209.146
192.397
175.288
163.274
156.771
158.753
169.188
182.348
192.956
192.073
175.607
146.26
110.254
79.596
60.745
54.838
60.096
67.636
72.358
72.524
66.49
58.171
50.196
42.95
37.879
34.012
30.333
27.147
24.203
21.536
19.369
17.484
15.685
13.935
12.168
10.322
8.392
6.39
4.322
2.239
0.206
-1.76
-3.65
-5.441
-7.124
-8.682
-10.09
-11.345
-12.441
-13.371
-14.125
-14.695
-15.088
-15.324
-15.439
-15.463
-15.427
-15.356
-15.272
-15.209
-15.197
-15.273
-15.483
-15.872
-16.486
-17.363
-18.522
-19.959
-21.645
-23.532
-25.556
-27.666
-29.826
-32.004
-34.167
-36.28
-38.306
-40.197
-41.899
-43.344
-44.45
-45.154
-45.419
-45.242
-44.655
-43.717
-42.504
-41.081
-39.499
-37.802
-36.024
-34.196
-32.348
-30.514
-28.732
-27.058
-25.567
-24.32
-23.36
-22.707
-22.349
-22.256
-22.379
-22.676
-23.113
-23.663
-24.312
-25.052
-25.882
-26.802
-27.812
-28.901
-30.046
-31.226
-32.421
-33.624
-34.842
-36.086
-37.379
-38.739
-40.185
-41.729
-43.373
-45.116
-46.951
-48.866
-50.845
-52.876
-54.951
-57.062
-59.204
-61.368
-63.543
-65.717
-67.873
-69.997
-72.073
-74.084
-76.017
-77.86
-79.602
-81.236
-82.755
-84.154
-85.427
-86.568
-87.572
-88.432
-89.145
-89.706
-90.112
-90.36
-90.45
-90.382
-90.16
-89.787
-89.268
-88.608
-87.814
-86.891
-85.849
-84.693
-83.434
-82.079
-80.638
-79.122
-77.541
-75.908
-74.233
-72.529
-70.807
-69.08
-67.359
-65.653
-63.973
-62.328
-60.733
-59.199
-57.737
-56.358
-55.068
-53.874
-52.791
-51.818
-50.939
-50.141
-49.416
-48.761
-48.193
-47.724
-47.34
-47.076
-47.014
-47.203
-47.66
-48.388
-49.332
-50.428
-51.684
-52.957
-53.845
-54.245
-54.352
-54.142
-53.83
-52.954
-49.828
-44.798
-39.692
-37.498
-43.594
-58.812
-79.517
-99.431
-108.27
-101.408
-80.164
-51.135
-27.281
-16.748
-22.987
-42.732
-64.844
-81.625
-88.097
-84.256
-76.555
-69.097
-64.299
-62.842
-62.376
-61.818
-61.2
-60.441
-59.968
-59.866
-59.764
-59.53
-59.174
-58.669
-58.028
-57.278
-56.432
-55.531
-54.637
-53.773
-52.921
-52.078
-51.248
-50.429
-49.628
-48.844
-48.072
-47.31
-46.564
-45.835
-45.126
-44.436
-43.765
-43.112
-42.479
-41.864
-41.269
-40.691
-40.132
-39.592
-39.069
-38.565
-38.08
-37.614
-37.166
-36.738
-36.329
-35.938
-35.566
-35.211
-34.872
-34.548
-34.237
-33.939
-33.65
-33.371
-33.098
-32.829
-32.565
-32.301
-32.038
-31.772
-31.502
-31.227
-30.945
-30.655
-30.355
-30.044
-29.721
-29.384
-29.034
-28.668
-28.286
-27.887
-27.468
-27.03
-26.57
-26.088
-25.583
-25.055
-24.503
-23.927
-23.329
-22.708
-22.066
-21.404
-20.723
-20.025
-19.312
-18.586
-17.85
-17.105
-16.354
-15.6
-14.846
-14.094
-13.347
-12.607
-11.875
-11.155
-10.446
-9.75
-9.068
-8.401
-7.748
-7.112
-6.493
-5.891
-5.306
-4.738
-4.189
-3.657
-3.143
-2.645
-2.162
-1.693
-1.236
-0.793
-0.362
0.058
0.467
0.865
1.253
1.631
1.998
2.355
2.706
3.051
3.39
3.72
4.038
4.342
4.627
4.889
5.122
5.319
5.476
5.589
5.658
5.681
5.655
5.58
5.449
5.257
5
4.676
4.286
3.833
3.318
2.74
2.103
1.408
0.658
-0.142
-0.995
-1.906
-2.883
-3.935
-5.058
-6.236
-7.461
-8.733
-10.069
-11.484
-12.97
-14.478
-15.951
-17.341
-18.629
-19.831
-20.922
-21.82
-22.482
-22.96
-23.431
-24.109
-25.062
-26.152
-27.189
-28.133
-28.991
-29.658
-29.789
-28.933
-26.911
-24.038
-20.939
-18.03
-15.572
-13.889
-13.491
-15.068
-19.006
-24.974
-32.112
-39.688
-47.109
-53.802
-59.149
-62.271
-62.477
-59.715
-54.431
-47.147
-38.399
-28.619
-18.141
-7.503
2.787
12.589
22.084
31.801
42.554
55.049
69.708
86.768
106.318
128.153
151.665
175.471
197.361
214.79
225.364
227.255
218.814
198.371
164.795
118.1
60.719
-2.535
-66.869
-129.493
-191.587
-255.895
-322.491
-386.327
-434.02
-451.633
-430.267
-368.378
-279.126
-179.893
-88.706
-22.432
15.844
27.366
19.49
5.123
-11.222
-23.36
-29.092
-31.391
-27.634
-20.845
-13.663
-5.73
-0.311
3.987
8.915
13.781
19.132
23.567
25.684
25.733
23.906
20.749
16.913
12.671
8.391
4.455
1.064
-1.686
-3.829
-5.391
-6.356
-6.728
-6.52
-5.799
-4.639
-3.092
-1.188
1.034
3.52
6.194
8.955
11.72
14.437
17.074
19.615
22.041
24.333
26.486
28.509
30.43
32.276
34.072
35.833
37.58
39.342
41.152
43.051
45.067
47.214
49.499
51.925
54.495
57.211
60.066
63.047
66.139
69.333
72.619
75.993
79.444
82.962
86.532
90.142
93.781
97.442
101.114
104.789
108.459
112.117
115.756
119.374
122.964
126.519
130.032
133.495
136.899
140.237
143.501
146.682
149.772
152.764
155.65
158.426
161.083
163.617
166.02
168.286
170.409
172.383
174.201
175.857
177.345
178.659
179.794
180.746
181.508
182.077
182.447
182.614
182.574
182.323
181.856
181.169
180.259
179.123
177.758
176.164
174.337
172.279
169.99
167.469
164.72
161.743
158.542
155.12
151.481
147.63
143.573
139.317
134.87
130.243
125.444
120.485
115.377
110.133
104.766
99.289
93.717
88.064
82.345
76.577
70.775
64.957
59.14
53.34
47.576
41.864
36.223
30.669
25.219
19.889
14.696
9.654
4.78
0.086
-4.412
-8.703
-12.775
-16.618
-20.221
-23.577
-26.68
-29.524
-32.106
-34.421
-36.47
-38.252
-39.768
-41.02
-42.011
-42.746
-43.23
-43.47
-43.473
-43.25
-42.809
-42.16
-41.317
-40.29
-39.092
-37.737
-36.238
-34.61
-32.867
-31.023
-29.094
-27.093
-25.036
-22.936
-20.808
-18.665
-16.519
-14.383
-12.267
-10.183
-8.14
-6.146
-4.211
-2.34
-0.541
1.181
2.822
4.378
5.845
7.222
8.508
9.703
10.805
11.818
12.742
13.581
14.337
15.013
15.615
16.146
16.612
17.017
17.368
17.668
17.925
18.143
18.326
18.481
18.611
18.721
18.815
18.895
18.966
19.029
19.087
19.142
19.196
19.248
19.301
19.353
19.404
19.455
19.503
19.548
19.587
19.618
19.638
19.646
19.638
19.61
19.56
19.483
19.376
19.236
19.058
18.84
18.579
18.271
17.916
17.51
17.051
16.54
15.974
15.354
14.678
13.946
13.16
12.319
11.425
10.478
9.48
8.433
7.338
6.198
5.016
3.792
2.53
1.234
-0.096
-1.454
-2.838
-4.245
-5.671
-7.112
-8.566
-10.028
-11.495
-12.965
-14.435
-15.902
-17.365
-18.821
-20.27
-21.709
-23.138
-24.556
-25.963
-27.357
-28.739
-30.109
-31.466
-32.811
-34.145
-35.466
-36.776
-38.074
-39.361
-40.637
-41.902
-43.156
-44.399
-45.631
-46.852
-48.063
-49.263
-50.452
-51.631
-52.798
-53.953
-55.095
-56.222
-57.334
-58.428
-59.503
-60.555
-61.583
-62.583
-63.553
-64.49
-65.39
-66.249
-67.065
-67.834
-68.552
-69.215
-69.82
-70.364
-70.843
-71.254
-71.595
-71.863
-72.056
-72.17
-72.204
-72.156
-72.024
-71.806
-71.501
-71.109
-70.628
-70.059
-69.401
-68.655
-67.823
-66.905
-65.903
-64.819
-63.655
-62.414
-61.1
-59.714
-58.261
-56.744
-55.168
-53.537
-51.855
-50.126
-48.355
-46.547
-44.706
-42.836
-40.943
-39.031
-37.104
-35.168
-33.228
-31.287
-29.351
-27.426
-25.514
-23.623
-21.755
-19.916
-18.111
-16.344
-14.619
-12.942
-11.316
-9.746
-8.238
-6.794
-5.42
-4.121
-2.901
-1.765
-0.717
0.237
1.094
1.847
2.493
3.027
3.443
3.738
3.907
3.946
3.851
3.619
3.246
2.731
2.071
1.265
0.312
-0.787
-2.033
-3.423
-4.956
-6.629
-8.438
-10.379
-12.446
-14.635
-16.937
-19.344
-21.849
-24.441
-27.109
-29.842
-32.627
-35.451
-38.3
-41.159
-44.013
-46.847
-49.643
-52.386
-55.059
-57.645
-60.127
-62.49
-64.716
-66.793
-68.705
-70.439
-71.984
-73.328
-74.463
-75.38
-76.073
-76.535
-76.763
-76.753
-76.505
-76.017
-75.294
-74.336
-73.151
-71.745
-70.128
-68.309
-66.302
-64.12
-61.778
-59.293
-56.684
-53.968
-51.167
-48.301
-45.392
-42.462
-39.534
-36.63
-33.772
-30.982
-28.281
-25.687
-23.219
-20.892
-18.721
-16.72
-14.902
-13.277
-11.855
-10.645
-9.655
-8.893
-8.366
-8.076
-8.026
-8.212
-8.628
-9.269
-10.126
-11.186
-12.435
-13.854
-15.427
-17.14
-18.977
-20.923
-22.957
-25.05
-27.178
-29.323
-31.468
-33.6
-35.709
-37.786
-39.827
-41.845
-43.851
-45.857
-47.874
-49.888
-51.889
-53.864
-55.802
-57.708
-59.576
-61.384
-63.111
-64.716
-66.156
-67.406
-68.428
-69.164
-69.583
-69.604
-69.149
-68.293
-67.092
-65.614
-63.963
-62.063
-59.827
-57.387
-54.876
-52.234
-49.469
-46.467
-43.061
-39.615
-36.526
-33.89
-31.853
-30.631
-30.31
-31.222
-33.757
-37.621
-42.464
-48.148
-54.39
-60.984
-67.846
-74.623
-80.943
-86.927
-92.668
-98.125
-103.364
-108.329
-112.935
-117.296
-121.508
-125.435
-128.969
-132.094
-134.824
-137.223
-139.283
-140.824
-141.544
-141.248
-139.974
-137.806
-134.83
-131.278
-127.345
-123.311
-119.903
-117.711
-116.725
-116.705
-117.083
-116.873
-115.547
-112.785
-107.549
-99.016
-87.366
-72.993
-56.813
-40.587
-23.941
-5.979
11.459
27.589
40.227
47.044
52.032
58.252
67.889
82.042
95.235
103.541
104.654
98.306
86.807
67.331
35.677
-16.149
-95.236
-196.23
-308.216
-411.212
-482.102
-512.355
-503.238
-467.215
-423.138
-379.766
-338.019
-292.807
-240.023
-184.7
-135.922
-104.759
-94.485
-98.23
-108.133
-115.034
-115.304
-112.21
-107.459
-102.609
-97.895
-91.058
-81.765
-71.042
-59.989
-50.228
-42.711
-37.501
-34.577
-33.775
-34.701
-36.932
-39.967
-43.234
-46.323
-49.009
-51.152
-52.704
-53.66
-54.013
-53.769
-52.953
-51.575
-49.647
-47.21
-44.321
-41.04
-37.44
-33.597
-29.58
-25.509
-21.554
-17.748
-14.017
-10.28
-6.409
-2.426
1.433
5.091
8.648
12.001
14.941
17.214
18.401
18.525
18.165
17.654
17.096
16.766
16.926
17.962
20.562
24.792
30.01
35.818
41.978
48.215
54.428
60.333
65.336
69.348
72.808
76.001
79.164
82.458
85.821
89.338
93.286
97.704
102.419
107.308
112.228
117.112
122.031
126.986
131.914
136.798
141.639
146.442
151.232
156
160.705
165.322
169.828
174.205
178.447
182.538
186.459
190.206
193.775
197.168
200.397
203.462
206.371
209.137
211.771
214.28
216.664
218.902
220.977
222.877
224.602
226.163
227.565
228.795
229.833
230.661
231.248
231.579
231.639
231.381
230.765
229.763
228.366
226.616
224.595
222.369
219.983
217.458
214.788
212.025
209.27
206.577
203.919
201.162
198.168
194.968
191.778
188.828
186.18
183.86
182.009
181.026
181.422
183.4
186.656
190.583
194.771
198.951
202.763
205.599
206.643
205.399
202.076
197.398
191.945
186.088
180.167
174.6
170.02
166.862
165
163.887
163.053
162.23
161.284
160.13
158.54
156.325
153.537
150.414
147.177
143.928
140.657
137.289
133.813
130.254
126.611
122.85
118.93
114.83
110.575
106.219
101.817
97.4
92.991
88.593
84.208
79.859
75.574
71.397
67.383
63.56
59.934
56.505
53.264
50.228
47.436
44.866
42.431
40.077
37.803
35.75
34.208
33.305
32.964
33.022
33.303
33.666
33.922
33.538
31.601
27.426
20.854
12.305
2.563
-7.661
-17.616
-26.226
-31.95
-33.317
-29.629
-21.329
-9.633
4.14
18.58
32.302
43.665
50.835
52.737
49.489
42.049
31.769
20.156
8.334
-2.627
-11.4
-17.16
-19.78
-19.624
-17.537
-14.511
-11.108
-7.716
-4.827
-2.701
-1.438
-1.022
-1.145
-1.428
-1.714
-1.947
-2.099
-2.218
-2.303
-2.327
-2.336
-2.385
-2.492
-2.659
-2.856
-3.032
-3.171
-3.271
-3.338
-3.386
-3.421
-3.437
-3.436
-3.422
-3.402
-3.389
-3.393
-3.423
-3.488
-3.601
-3.776
-4.032
-4.379
-4.826
-5.372
-6.016
-6.755
-7.595
-8.541
-9.602
-10.786
-12.098
-13.542
-15.126
-16.85
-18.714
-20.71
-22.823
-25.037
-27.338
-29.719
-32.183
-34.726
-37.331
-39.971
-42.595
-45.154
-47.623
-49.982
-52.224
-54.35
-56.328
-58.153
-59.876
-61.486
-62.924
-64.072
-64.672
-64.511
-63.61
-62.033
-59.886
-57.488
-55.152
-53.276
-52.605
-53.687
-56.567
-61.104
-66.836
-72.903
-78.648
-83.373
-85.974
-85.69
-82.337
-76.005
-67.354
-57.484
-47.142
-37.015
-28.051
-20.84
-15.62
-12.438
-10.813
-9.978
-9.479
-8.963
-8.045
-6.568
-4.449
-1.655
1.597
4.998
8.363
11.573
14.601
17.503
20.292
22.969
25.534
27.967
30.304
32.597
34.671
36.313
37.601
38.523
39.048
39.551
39.06
36.624
33.611
30.437
29.61
34.132
40.707
47.145
50.18
45.321
36.578
27.355
19.989
18.327
19.645
21.184
22.341
21.442
19.485
17.75
16.013
14.45
12.991
11.396
9.844
8.482
7.274
6.22
5.342
4.644
4.118
3.766
3.562
3.48
3.529
3.719
4.04
4.489
5.059
5.74
6.526
7.411
8.381
9.425
10.529
11.681
12.867
14.075
15.291
16.5
17.69
18.846
19.955
21.004
21.981
22.873
23.669
24.358
24.932
25.383
25.703
25.888
25.932
25.833
25.589
25.198
24.661
23.978
23.153
22.188
21.088
19.858
18.505
17.036
15.46
13.785
12.022
10.18
8.271
6.306
4.297
2.254
0.192
-1.879
-3.947
-5.997
-8.02
-10.001
-11.931
-13.797
-15.59
-17.3
-18.919
-20.437
-21.848
-23.145
-24.322
-25.376
-26.3
-27.092
-27.749
-28.267
-28.647
-28.886
-28.986
-28.946
-28.768
-28.454
-28.008
-27.432
-26.732
-25.911
-24.974
-23.928
-22.778
-21.531
-20.194
-18.773
-17.276
-15.712
-14.09
-12.418
-10.704
-8.957
-7.185
-5.397
-3.601
-1.806
-0.018
1.755
3.503
5.22
6.896
8.523
10.095
11.603
13.038
14.39
15.654
16.824
17.892
18.855
19.708
20.449
21.077
21.593
21.996
22.284
22.456
22.511
22.45
22.278
21.996
21.611
21.131
20.564
19.924
19.222
18.463
17.652
16.79
15.875
14.917
13.924
12.907
11.888
10.889
9.941
9.084
8.344
7.729
7.252
6.912
6.712
6.667
6.784
7.07
7.538
8.196
9.05
10.104
11.315
12.618
13.934
15.171
16.28
17.241
18.01
18.546
18.806
18.738
18.367
17.729
16.784
15.552
14.086
12.509
11.173
10.453
10.533
11.582
13.681
16.675
20.494
24.926
29.288
32.943
35.517
36.745
36.82
36.37
35.721
35.345
36.299
39.675
46.499
57.626
73.094
92.295
114.896
140.316
167.125
193.187
215.741
231.897
239.196
235.644
219.001
187
139.649
79.688
10.274
-64.662
-144.509
-232.713
-327.499
-424.48
-513.827
-577.911
-607.642
-598.192
-549.256
-475.421
-388.545
-301.694
-233.794
-188.608
-166.592
-164.352
-163.92
-156.785
-140.031
-112.16
-85.086
-66.294
-57.49
-60.384
-68.715
-77.464
-85.241
-90.157
-93.35
-95.813
-97.049
-97.35
-96.734
-95.403
-94.266
-93.832
-94.251
-95.533
-97.31
-99.182
-100.947
-102.227
-102.436
-100.948
-97.186
-91.04
-83.034
-73.885
-64.092
-54.095
-44.427
-35.853
-29.303
-25.227
-23.314
-22.833
-23.227
-24.153
-25.333
-26.339
-26.496
-25.394
-23.188
-20.404
-17.486
-14.646
-11.937
-9.402
-7.254
-5.658
-4.539
-3.646
-2.736
-1.681
-0.469
0.854
2.303
3.924
5.727
7.689
9.773
11.958
14.257
16.704
19.325
22.131
25.121
28.287
31.624
35.133
38.815
42.671
46.696
50.883
55.223
59.703
64.311
69.035
73.858
78.761
83.724
88.729
93.76
98.804
103.847
108.871
113.857
118.787
123.642
128.401
133.047
137.559
141.919
146.108
150.109
153.906
157.483
160.825
163.917
166.746
169.297
171.558
173.517
175.164
176.488
177.483
178.141
178.457
178.423
178.036
177.291
176.188
174.724
172.901
170.717
168.177
165.283
162.045
158.469
154.566
150.342
145.805
140.964
135.834
130.433
124.781
118.895
112.794
106.495
100.019
93.389
86.625
79.745
72.764
65.693
58.554
51.372
44.177
37.002
29.866
22.771
15.724
8.722
1.784
-5.048
-11.746
-18.296
-24.681
-30.906
-36.934
-42.66
-48.095
-53.347
-58.514
-63.736
-68.994
-74.047
-78.792
-83.3
-87.451
-91.008
-93.701
-95.089
-95.15
-94.421
-93.205
-91.583
-89.828
-88.21
-87.074
-87.067
-88.315
-90.238
-92.524
-95.036
-97.423
-99.467
-100.926
-101.289
-100.388
-98.544
-95.836
-92.224
-88.048
-83.649
-79.271
-75.235
-71.75
-68.88
-66.904
-66.25
-66.815
-68.122
-69.848
-71.782
-73.757
-75.61
-77.017
-77.403
-76.64
-75.223
-73.536
-71.791
-70.147
-68.655
-67.458
-66.967
-67.385
-68.401
-69.742
-71.234
-72.734
-74.283
-75.892
-77.386
-78.634
-79.724
-80.735
-81.732
-82.781
-83.821
-84.795
-85.718
-86.603
-87.437
-88.213
-88.909
-89.501
-89.998
-90.412
-90.747
-91.011
-91.198
-91.303
-91.328
-91.273
-91.143
-90.941
-90.672
-90.337
-89.936
-89.474
-88.954
-88.381
-87.759
-87.093
-86.385
-85.638
-84.859
-84.055
-83.23
-82.391
-81.541
-80.683
-79.823
-78.965
-78.112
-77.268
-76.434
-75.613
-74.806
-74.014
-73.237
-72.477
-71.733
-71.005
-70.292
-69.594
-68.911
-68.242
-67.586
-66.943
-66.31
-65.686
-65.07
-64.46
-63.853
-63.249
-62.644
-62.039
-61.43
-60.816
-60.195
-59.567
-58.929
-58.28
-57.619
-56.945
-56.256
-55.554
-54.837
-54.106
-53.361
-52.604
-51.835
-51.056
-50.269
-49.474
-48.674
-47.87
-47.064
-46.256
-45.448
-44.642
-43.839
-43.04
-42.246
-41.459
-40.678
-39.905
-39.14
-38.384
-37.636
-36.897
-36.166
-35.443
-34.728
-34.02
-33.319
-32.625
-31.937
-31.253
-30.574
-29.897
-29.222
-28.545
-27.867
-27.184
-26.494
-25.796
-25.087
-24.364
-23.627
-22.872
-22.099
-21.306
-20.491
-19.654
-18.794
-17.91
-17.002
-16.07
-15.116
-14.139
-13.14
-12.123
-11.087
-10.035
-8.969
-7.891
-6.803
-5.707
-4.607
-3.504
-2.4
-1.299
-0.204
0.882
1.956
3.015
4.053
5.068
6.056
7.011
7.931
8.812
9.649
10.44
11.179
11.865
12.493
13.062
13.567
14.008
14.381
14.686
14.92
15.085
15.178
15.2
15.15
15.03
14.838
14.576
14.243
13.84
13.369
12.829
12.222
11.55
10.814
10.017
9.16
8.247
7.281
6.264
5.2
4.092
2.944
1.76
0.542
-0.703
-1.973
-3.264
-4.57
-5.888
-7.215
-8.546
-9.878
-11.208
-12.534
-13.851
-15.158
-16.451
-17.729
-18.987
-20.224
-21.436
-22.621
-23.777
-24.9
-25.99
-27.043
-28.057
-29.031
-29.964
-30.853
-31.696
-32.494
-33.243
-33.944
-34.595
-35.195
-35.745
-36.242
-36.688
-37.081
-37.422
-37.71
-37.944
-38.125
-38.251
-38.322
-38.337
-38.295
-38.196
-38.038
-37.822
-37.546
-37.211
-36.816
-36.362
-35.847
-35.273
-34.642
-33.953
-33.209
-32.411
-31.562
-30.663
-29.72
-28.733
-27.707
-26.647
-25.557
-24.445
-23.316
-22.177
-21.033
-19.893
-18.763
-17.65
-16.561
-15.5
-14.471
-13.483
-12.543
-11.658
-10.838
-10.087
-9.412
-8.821
-8.32
-7.914
-7.606
-7.392
-7.273
-7.252
-7.335
-7.532
-7.846
-8.277
-8.819
-9.468
-10.215
-11.052
-11.959
-12.909
-13.879
-14.852
-15.813
-16.757
-17.67
-18.531
-19.314
-19.991
-20.543
-20.959
-21.238
-21.388
-21.425
-21.376
-21.273
-21.16
-21.086
-21.104
-21.269
-21.625
-22.221
-23.097
-24.324
-26.012
-28.209
-30.869
-33.853
-36.906
-39.808
-42.462
-44.726
-46.337
-47.136
-47.109
-46.489
-45.887
-45.765
-46.123
-46.885
-48.037
-49.518
-51.236
-52.698
-52.7
-50.154
-44.65
-35.991
-24.032
-8.436
11.482
35.981
64.362
95.689
129.342
164.639
200.682
235.749
266.904
291.199
306.401
310.257
300.423
275.203
233.236
175.586
106.637
29.378
-53.91
-141.514
-234.098
-326.005
-406.392
-465.524
-492.92
-487.493
-458.124
-413.446
-363.664
-314.302
-264.389
-215.056
-167.864
-125.247
-91.339
-67.567
-53.174
-46.492
-44.693
-44.988
-44.992
-42.666
-36.814
-27.061
-13.683
2.432
20.089
37.872
54.294
68.295
79.331
87.236
92.214
94.665
95.041
93.931
91.977
89.624
87.167
84.787
82.561
80.57
78.912
77.649
76.794
76.353
76.312
76.636
77.276
78.156
79.186
80.269
81.325
82.289
83.111
83.757
84.191
84.396
84.369
84.118
83.688
83.145
82.57
82.072
81.781
81.819
82.301
83.335
85
87.354
90.432
94.246
98.798
104.065
110.002
116.547
123.606
131.086
138.899
146.944
155.113
163.306
171.429
179.401
187.169
194.687
201.923
208.856
215.475
221.786
227.812
233.589
239.169
244.592
249.884
255.073
260.182
265.231
270.231
275.182
280.068
284.874
289.584
294.179
298.638
302.933
307.028
310.883
314.455
317.709
320.62
323.163
325.322
327.082
328.433
329.373
329.907
330.037
329.765
329.092
328.022
326.557
324.708
322.483
319.89
316.942
313.645
310.011
306.05
301.771
297.184
292.3
287.127
281.676
275.96
269.994
263.792
257.369
250.743
243.928
236.943
229.805
222.531
215.136
207.638
200.053
192.396
184.685
176.934
169.16
161.379
153.605
145.854
138.142
130.482
122.891
115.381
107.967
100.663
93.481
86.434
79.534
72.792
66.218
59.822
53.614
47.601
41.791
36.19
30.803
25.636
20.691
15.97
11.475
7.207
3.165
-0.651
-4.244
-7.616
-10.77
-13.708
-16.437
-18.96
-21.284
-23.414
-25.358
-27.123
-28.718
-30.15
-31.428
-32.562
-33.559
-34.431
-35.185
-35.831
-36.38
-36.84
-37.222
-37.535
-37.787
-37.989
-38.148
-38.273
-38.37
-38.447
-38.51
-38.565
-38.616
-38.669
-38.729
-38.799
-38.882
-38.982
-39.101
-39.241
-39.403
-39.589
-39.798
-40.031
-40.287
-40.566
-40.867
-41.189
-41.531
-41.891
-42.27
-42.664
-43.072
-43.492
-43.923
-44.362
-44.809
-45.261
-45.717
-46.177
-46.64
-47.104
-47.571
-48.039
-48.509
-48.981
-49.455
-49.93
-50.407
-50.887
-51.371
-51.858
-52.35
-52.848
-53.353
-53.866
-54.387
-54.918
-55.459
-56.01
-56.571
-57.144
-57.727
-58.32
-58.923
-59.535
-60.156
-60.784
-61.418
-62.056
-62.695
-63.333
-63.968
-64.596
-65.214
-65.821
-66.412
-66.986
-67.539
-68.069
-68.574
-69.051
-69.497
-69.911
-70.291
-70.634
-70.94
-71.206
-71.433
-71.619
-71.765
-71.871
-71.936
-71.962
-71.951
-71.902
-71.819
-71.703
-71.557
-71.385
-71.19
-70.975
-70.747
-70.508
-70.264
-70.021
-69.782
-69.553
-69.338
-69.143
-68.971
-68.828
-68.717
-68.643
-68.609
-68.618
-68.675
-68.781
-68.938
-69.149
-69.415
-69.737
-70.116
-70.551
-71.043
-71.592
-72.196
-72.855
-73.566
-74.327
-75.136
-75.989
-76.882
-77.812
-78.773
-79.761
-80.77
-81.796
-82.833
-83.875
-84.917
-85.953
-86.979
-87.987
-88.973
-89.932
-90.858
-91.748
-92.596
-93.398
-94.152
-94.854
-95.5
-96.089
-96.617
-97.083
-97.486
-97.823
-98.094
-98.297
-98.434
-98.503
-98.507
-98.446
-98.321
-98.134
-97.889
-97.586
-97.23
-96.824
-96.37
-95.873
-95.337
-94.766
-94.165
-93.536
-92.886
-92.218
-91.536
-90.844
-90.147
-89.447
-88.748
-88.054
-87.367
-86.691
-86.029
-85.383
-84.755
-84.148
-83.564
-83.004
-82.469
-81.96
-81.48
-81.028
-80.606
-80.213
-79.852
-79.521
-79.222
-78.953
-78.714
-78.503
-78.321
-78.164
-78.032
-77.924
-77.839
-77.776
-77.732
-77.709
-77.704
-77.717
-77.747
-77.792
-77.85
-77.922
-78.006
-78.101
-78.207
-78.323
-78.448
-78.583
-78.725
-78.874
-79.028
-79.185
-79.342
-79.496
-79.644
-79.781
-79.903
-80.009
-80.096
-80.162
-80.205
-80.222
-80.211
-80.171
-80.097
-79.987
-79.834
-79.63
-79.369
-79.047
-78.658
-78.2
-77.667
-77.056
-76.364
-75.592
-74.738
-73.8
-72.77
-71.635
-70.393
-69.046
-67.605
-66.083
-64.496
-62.853
-61.174
-59.484
-57.798
-56.126
-54.465
-52.794
-51.108
-49.409
-47.708
-46.029
-44.384
-42.769
-41.18
-39.609
-38.046
-36.484
-34.901
-33.255
-31.533
-29.738
-27.903
-26.098
-24.371
-22.754
-21.276
-19.944
-18.772
-17.794
-17.03
-16.491
-16.196
-16.153
-16.387
-16.957
-17.885
-19.164
-20.76
-22.582
-24.558
-26.636
-28.755
-30.875
-32.96
-34.958
-36.844
-38.63
-40.322
-41.939
-43.491
-44.93
-46.244
-47.462
-48.629
-49.84
-51.184
-52.711
-54.512
-56.717
-59.368
-62.437
-65.779
-69.08
-72.073
-74.625
-76.548
-77.622
-77.828
-77.252
-76.23
-75.478
-75.452
-76.144
-77.464
-79.262
-81.08
-82.456
-82.622
-80.16
-74.094
-64.218
-50.636
-33.742
-14.118
8.099
32.63
58.337
84.477
110.962
138.012
166.182
194.549
219.989
239.655
252.141
259.023
263.366
264.236
256.816
232.607
183.095
106.822
6.192
-113.63
-242.927
-372.239
-487.294
-568.811
-606.044
-596.197
-548.042
-482.71
-415.292
-353.461
-298.631
-244.244
-187.891
-132.505
-82.011
-41.716
-14.011
2.356
9.556
10.114
6.189
-0.296
-7.402
-13.359
-16.71
-16.938
-14.336
-9.422
-2.869
4.469
11.796
18.287
23.14
26.096
27.29
26.983
25.619
23.69
21.6
19.79
18.683
18.455
19.151
20.752
23.136
26.199
29.855
33.969
38.412
43.094
47.934
52.866
57.818
62.673
67.332
71.733
75.825
79.596
83.033
86.124
88.879
91.333
93.522
95.488
97.267
98.882
100.368
101.769
103.132
104.513
105.954
107.487
109.135
110.919
112.853
114.951
117.217
119.645
122.234
124.985
127.899
130.984
134.24
137.664
141.252
144.999
148.903
152.959
157.163
161.508
165.988
170.595
175.324
180.168
185.117
190.158
195.279
200.463
205.695
210.958
216.234
221.503
226.745
231.941
237.072
242.117
247.057
251.87
256.537
261.037
265.349
269.454
273.331
276.96
280.323
283.402
286.18
288.64
290.767
292.548
293.968
295.017
295.686
295.965
295.848
295.329
294.405
293.073
291.334
289.188
286.64
283.692
280.352
276.627
272.527
268.061
263.242
258.082
252.595
246.797
240.704
234.334
227.707
220.842
213.759
206.482
199.031
191.431
183.704
175.875
167.966
160.003
152.008
144.006
136.02
128.072
120.184
112.379
104.676
97.096
89.658
82.378
75.275
68.363
61.656
55.169
48.913
42.898
37.135
31.631
26.395
21.431
16.744
12.336
8.21
4.366
0.802
-2.483
-5.495
-8.237
-10.715
-12.937
-14.911
-16.644
-18.148
-19.433
-20.508
-21.387
-22.08
-22.6
-22.959
-23.17
-23.245
-23.197
-23.038
-22.78
-22.437
-22.019
-21.54
-21.01
-20.442
-19.845
-19.231
-18.61
-17.992
-17.386
-16.801
-16.245
-15.724
-15.247
-14.819
-14.445
-14.131
-13.88
-13.696
-13.581
-13.538
-13.569
-13.675
-13.856
-14.113
-14.446
-14.855
-15.339
-15.896
-16.526
-17.226
-17.995
-18.831
-19.731
-20.693
-21.712
-22.787
-23.913
-25.087
-26.304
-27.56
-28.851
-30.171
-31.517
-32.883
-34.265
-35.658
-37.057
-38.458
-39.856
-41.247
-42.626
-43.989
-45.332
-46.65
-47.94
-49.196
-50.416
-51.595
-52.73
-53.817
-54.853
-55.835
-56.759
-57.623
-58.423
-59.159
-59.828
-60.428
-60.959
-61.419
-61.81
-62.13
-62.382
-62.565
-62.682
-62.735
-62.724
-62.654
-62.526
-62.344
-62.11
-61.828
-61.503
-61.138
-60.737
-60.306
-59.848
-59.369
-58.873
-58.365
-57.851
-57.335
-56.822
-56.318
-55.827
-55.354
-54.904
-54.482
-54.091
-53.735
-53.419
-53.144
-52.914
-52.731
-52.596
-52.511
-52.477
-52.495
-52.566
-52.688
-52.863
-53.088
-53.364
-53.688
-54.058
-54.472
-54.927
-55.421
-55.949
-56.509
-57.096
-57.708
-58.34
-58.987
-59.646
-60.313
-60.982
-61.649
-62.31
-62.96
-63.596
-64.213
-64.808
-65.377
-65.917
-66.425
-66.899
-67.335
-67.732
-68.087
-68.398
-68.664
-68.882
-69.052
-69.172
-69.244
-69.265
-69.237
-69.161
-69.036
-68.864
-68.647
-68.385
-68.08
-67.734
-67.35
-66.93
-66.476
-65.992
-65.48
-64.944
-64.387
-63.81
-63.218
-62.613
-61.998
-61.376
-60.749
-60.121
-59.496
-58.875
-58.263
-57.662
-57.076
-56.509
-55.962
-55.439
-54.944
-54.477
-54.044
-53.645
-53.284
-52.962
-52.682
-52.446
-52.255
-52.111
-52.015
-51.967
-51.967
-52.016
-52.114
-52.26
-52.455
-52.697
-52.985
-53.319
-53.698
-54.119
-54.58
-55.078
-55.611
-56.174
-56.764
-57.378
-58.01
-58.657
-59.313
-59.974
-60.634
-61.289
-61.931
-62.557
-63.159
-63.731
-64.269
-64.766
-65.217
-65.617
-65.961
-66.245
-66.465
-66.618
-66.7
-66.708
-66.64
-66.494
-66.27
-65.966
-65.582
-65.12
-64.582
-63.973
-63.299
-62.562
-61.77
-60.929
-60.046
-59.129
-58.184
-57.218
-56.236
-55.246
-54.258
-53.28
-52.321
-51.391
-50.5
-49.658
-48.875
-48.16
-47.517
-46.948
-46.458
-46.05
-45.731
-45.512
-45.399
-45.396
-45.507
-45.732
-46.067
-46.502
-47.018
-47.587
-48.186
-48.796
-49.403
-49.996
-50.563
-51.091
-51.568
-51.98
-52.315
-52.561
-52.713
-52.772
-52.761
-52.723
-52.71
-52.796
-53.038
-53.479
-54.171
-55.163
-56.504
-58.24
-60.406
-63.014
-66.104
-69.749
-73.929
-78.534
-83.343
-88.007
-92.206
-95.712
-98.228
-99.387
-99.058
-97.346
-94.619
-91.584
-88.775
-86.399
-84.782
-84.337
-85.037
-86.502
-87.852
-87.629
-84.748
-78.645
-68.472
-53.176
-32.23
-5.507
26.331
61.718
99.432
138.427
176.703
211.47
239.98
259.282
266.873
260.947
238.968
199.871
145.676
79.267
4.204
-79.074
-174.67
-282.625
-397.686
-505.749
-584.281
-619.383
-607.326
-556.476
-487.86
-416.572
-350.378
-291.366
-233.957
-176.578
-122.49
-75.334
-39.768
-17.285
-5.823
-2.807
-5.499
-11.412
-18.381
-24.329
-27.541
-27.25
-23.676
-17.499
-9.547
-0.688
8.172
16.104
22.257
26.268
28.295
28.692
27.955
26.585
24.993
23.612
22.867
22.968
23.954
25.793
28.361
31.547
35.281
39.451
43.937
48.652
53.499
58.402
63.291
68.057
72.612
76.895
80.855
84.472
87.747
90.678
93.279
95.589
97.637
99.456
101.088
102.57
103.939
105.221
106.45
107.666
108.915
110.257
111.723
113.301
115.029
116.985
119.225
121.801
124.714
127.877
131.267
134.979
138.909
142.716
146.336
149.852
153.212
156.784
159.832
160.288
158.702
156.906
158.108
168.181
186.443
207.054
224.086
229.141
222.097
210.775
201.187
199.957
207.887
219.075
229.997
238.117
242.804
246.453
250.06
253.549
256.974
259.951
262.397
264.619
266.696
268.561
270.216
271.665
272.886
273.86
274.548
274.891
274.87
274.508
273.809
272.771
271.394
269.677
267.626
265.25
262.555
259.544
256.222
252.597
248.677
244.473
239.995
235.256
230.268
225.044
219.599
213.947
208.103
202.082
195.902
189.577
183.124
176.56
169.902
163.166
156.371
149.532
142.668
135.794
128.926
122.082
115.277
108.527
101.848
95.253
88.758
82.378
76.124
70.012
64.051
58.255
52.633
47.194
41.947
36.899
32.057
27.426
23.01
18.813
14.837
11.086
7.558
4.255
1.176
-1.682
-4.321
-6.744
-8.956
-10.961
-12.765
-14.374
-15.795
-17.034
-18.101
-19.002
-19.747
-20.346
-20.808
-21.144
-21.363
-21.477
-21.497
-21.431
-21.293
-21.09
-20.834
-20.534
-20.199
-19.839
-19.463
-19.079
-18.696
-18.32
-17.958
-17.618
-17.305
-17.024
-16.78
-16.577
-16.419
-16.308
-16.248
-16.24
-16.286
-16.388
-16.544
-16.757
-17.024
-17.345
-17.718
-18.141
-18.611
-19.126
-19.682
-20.277
-20.906
-21.568
-22.257
-22.971
-23.705
-24.455
-25.218
-25.991
-26.768
-27.548
-28.327
-29.103
-29.874
-30.637
-31.391
-32.133
-32.861
-33.575
-34.273
-34.953
-35.616
-36.259
-36.884
-37.491
-38.081
-38.655
-39.214
-39.757
-40.284
-40.798
-41.302
-41.797
-42.287
-42.774
-43.26
-43.75
-44.248
-44.757
-45.276
-45.802
-46.333
-46.865
-47.401
-47.944
-48.493
-49.044
-49.59
-50.124
-50.642
-51.144
-51.625
-52.077
-52.491
-52.862
-53.194
-53.502
-53.797
-54.091
-54.385
-54.667
-54.944
-55.225
-55.538
-55.924
-56.395
-56.943
-57.556
-58.216
-58.927
-59.727
-60.592
-61.435
-62.218
-62.946
-63.764
-64.958
-66.644
-68.729
-71.059
-73.468
-75.794
-77.842
-79.093
-78.666
-75.969
-70.919
-63.921
-55.723
-47.023
-38.529
-31.278
-26.729
-26.156
-30.128
-38.247
-49.403
-62.41
-76.017
-88.951
-99.725
-106.787
-109.233
-107.166
-101.438
-93.213
-83.81
-74.242
-65.449
-58.545
-54.23
-52.626
-53.43
-55.946
-59.312
-63.021
-66.734
-70.038
-72.708
-74.647
-75.841
-76.526
-77.021
-77.465
-77.901
-78.352
-78.766
-79.139
-79.498
-79.805
-80.009
-80.091
-80.041
-79.882
-79.656
-79.378
-79.051
-78.671
-78.23
-77.727
-77.169
-76.559
-75.898
-75.183
-74.407
-73.565
-72.656
-71.677
-70.626
-69.498
-68.289
-66.998
-65.627
-64.183
-62.672
-61.1
-59.469
-57.783
-56.048
-54.268
-52.45
-50.599
-48.722
-46.825
-44.916
-43.007
-41.109
-39.232
-37.386
-35.583
-33.832
-32.146
-30.533
-29.001
-27.557
-26.209
-24.962
-23.824
-22.804
-21.906
-21.137
-20.501
-20.003
-19.643
-19.421
-19.334
-19.375
-19.538
-19.82
-20.221
-20.747
-21.401
-22.18
-23.08
-24.092
-25.2
-26.391
-27.64
-28.915
-30.191
-31.445
-32.659
-33.829
-34.942
-35.988
-36.951
-37.8
-38.509
-39.066
-39.469
-39.733
-39.886
-39.955
-39.979
-40.015
-40.121
-40.363
-40.798
-41.47
-42.419
-43.674
-45.293
-47.389
-50.014
-53.117
-56.52
-59.905
-62.967
-65.503
-67.279
-67.958
-67.329
-65.434
-62.699
-59.962
-57.967
-57.129
-57.694
-59.908
-63.901
-69.37
-75.325
-80.103
-82.092
-80.188
-73.674
-61.818
-43.727
-18.997
11.925
47.719
86.714
127.472
168.632
208.135
242.945
270.018
286.531
290.03
278.529
249.805
203.187
140.876
66.061
-17.513
-109.367
-212.571
-325.354
-441.623
-547.397
-622.532
-657.609
-650.553
-608.034
-546.539
-473.914
-396.743
-322.616
-252.891
-194.815
-152.437
-121.565
-100.123
-82.762
-66.403
-54.39
-47.779
-46.79
-50.24
-53.976
-55.478
-54.218
-50.365
-44.931
-38.782
-32.365
-26.368
-21.627
-18.844
-18.274
-19.713
-22.774
-26.967
-31.821
-36.902
-41.714
-45.788
-48.872
-50.891
-51.854
-51.855
-50.984
-49.309
-46.948
-44.047
-40.722
-37.083
-33.229
-29.238
-25.228
-21.325
-17.621
-14.183
-11.048
-8.221
-5.708
-3.506
-1.585
0.097
1.587
2.938
4.195
5.4
6.606
7.865
9.236
10.776
12.527
14.52
16.777
19.309
22.127
25.235
28.629
32.299
36.236
40.432
44.881
49.579
54.516
59.678
65.052
70.624
76.379
82.304
88.385
94.605
100.95
107.403
113.949
120.572
127.252
133.969
140.699
147.42
154.107
160.737
167.283
173.721
180.025
186.172
192.137
197.898
203.432
208.716
213.73
218.454
222.869
226.956
230.698
234.08
237.088
239.709
241.93
243.743
245.137
246.106
246.644
246.746
246.41
245.635
244.422
242.772
240.689
238.18
235.253
231.915
228.179
224.056
219.561
214.71
209.518
204.005
198.188
192.089
185.728
179.126
172.305
165.289
158.1
150.762
143.298
135.732
128.088
120.39
112.661
104.925
97.204
89.521
81.898
74.357
66.918
59.601
52.425
45.408
38.568
31.921
25.479
19.258
13.268
7.521
2.024
-3.215
-8.191
-12.899
-17.336
-21.501
-25.393
-29.015
-32.369
-35.457
-38.285
-40.858
-43.183
-45.266
-47.116
-48.742
-50.152
-51.356
-52.364
-53.187
-53.834
-54.317
-54.647
-54.836
-54.893
-54.832
-54.663
-54.396
-54.044
-53.616
-53.122
-52.572
-51.974
-51.337
-50.67
-49.978
-49.269
-48.548
-47.822
-47.093
-46.368
-45.648
-44.939
-44.241
-43.558
-42.891
-42.243
-41.616
-41.01
-40.427
-39.87
-39.339
-38.835
-38.361
-37.916
-37.503
-37.122
-36.774
-36.459
-36.178
-35.932
-35.722
-35.548
-35.41
-35.31
-35.248
-35.225
-35.241
-35.298
-35.397
-35.538
-35.723
-35.952
-36.228
-36.55
-36.92
-37.339
-37.807
-38.324
-38.891
-39.507
-40.17
-40.88
-41.634
-42.43
-43.265
-44.138
-45.045
-45.982
-46.948
-47.938
-48.949
-49.978
-51.02
-52.074
-53.134
-54.197
-55.26
-56.319
-57.37
-58.411
-59.437
-60.446
-61.433
-62.395
-63.328
-64.229
-65.096
-65.923
-66.71
-67.454
-68.152
-68.803
-69.407
-69.962
-70.469
-70.928
-71.34
-71.705
-72.026
-72.303
-72.538
-72.733
-72.89
-73.01
-73.097
-73.151
-73.174
-73.17
-73.139
-73.084
-73.007
-72.909
-72.793
-72.66
-72.513
-72.355
-72.187
-72.012
-71.832
-71.649
-71.466
-71.285
-71.106
-70.932
-70.764
-70.601
-70.445
-70.296
-70.153
-70.017
-69.886
-69.759
-69.637
-69.518
-69.4
-69.283
-69.165
-69.047
-68.925
-68.8
-68.671
-68.535
-68.392
-68.24
-68.078
-67.904
-67.716
-67.511
-67.288
-67.045
-66.779
-66.488
-66.169
-65.821
-65.443
-65.031
-64.585
-64.103
-63.585
-63.028
-62.434
-61.802
-61.131
-60.423
-59.678
-58.896
-58.081
-57.232
-56.351
-55.441
-54.502
-53.539
-52.553
-51.548
-50.528
-49.496
-48.458
-47.42
-46.39
-45.373
-44.376
-43.407
-42.472
-41.578
-40.731
-39.935
-39.193
-38.51
-37.892
-37.343
-36.867
-36.47
-36.156
-35.928
-35.788
-35.739
-35.778
-35.899
-36.099
-36.373
-36.72
-37.143
-37.643
-38.216
-38.857
-39.557
-40.303
-41.079
-41.857
-42.602
-43.283
-43.876
-44.359
-44.725
-44.964
-45.062
-45.008
-44.783
-44.372
-43.771
-42.98
-42.004
-40.867
-39.617
-38.31
-37.036
-35.871
-34.863
-34.066
-33.525
-33.276
-33.371
-33.85
-34.733
-36.069
-37.928
-40.282
-43.032
-45.978
-48.776
-51.107
-52.719
-53.279
-52.419
-50.028
-46.235
-41.454
-36.413
-31.674
-27.497
-24.264
-22.462
-22.112
-22.802
-23.593
-22.966
-19.76
-13.363
-2.904
12.785
34.31
61.749
94.363
130.427
168.497
207.399
245.082
278.503
304.649
320.711
324.365
313.97
287.608
243.5
182.596
109.008
26.99
-60.276
-153.223
-254.37
-361.145
-464.232
-547.733
-596.095
-602.909
-572.641
-519.71
-459.367
-400.769
-346.509
-293.529
-239.278
-184.598
-132.769
-88.096
-52.655
-26.315
-7.868
4.796
13.043
17.566
19.616
20.174
19.904
19.936
20.964
22.899
25.709
29.359
33.54
38.23
43.495
48.651
52.929
56.091
58.075
59.014
59.187
58.6
57.123
55.139
53.308
52.019
51.499
51.783
52.74
54.404
56.942
60.286
64.166
68.38
72.74
77.132
81.556
85.934
90.114
94.018
97.629
100.941
103.995
106.818
109.402
111.765
113.948
115.984
117.924
119.809
121.665
123.532
125.449
127.459
129.611
131.942
134.475
137.228
140.212
143.429
146.881
150.564
154.469
158.587
162.908
167.423
172.124
177.005
182.053
187.257
192.603
198.077
203.665
209.353
215.128
220.975
226.879
232.825
238.8
244.788
250.772
256.734
262.654
268.515
274.295
279.974
285.533
290.95
296.206
301.281
306.156
310.812
315.232
319.397
323.29
326.894
330.194
333.175
335.822
338.122
340.064
341.636
342.828
343.633
344.043
344.052
343.657
342.854
341.641
340.018
337.987
335.551
332.713
329.478
325.856
321.853
317.48
312.749
307.674
302.268
296.547
290.528
284.231
277.673
270.875
263.86
256.65
249.267
241.737
234.083
226.331
218.506
210.633
202.739
194.847
186.984
179.172
171.438
163.803
156.291
148.924
141.722
134.706
127.895
121.306
114.955
108.858
103.028
97.478
92.218
87.258
82.606
78.267
74.246
70.546
67.168
64.112
61.374
58.952
56.84
55.031
53.517
52.289
51.337
50.648
50.212
50.015
50.043
50.281
50.716
51.33
52.11
53.038
54.1
55.279
56.559
57.925
59.362
60.854
62.387
63.946
65.517
67.087
68.643
70.173
71.666
73.112
74.502
75.826
77.079
78.254
79.345
80.349
81.261
82.08
82.804
83.432
83.964
84.401
84.746
85.001
85.17
85.257
85.266
85.202
85.071
84.879
84.632
84.337
83.999
83.627
83.228
82.808
82.376
81.938
81.502
81.074
80.661
80.269
79.903
79.568
79.268
79.007
78.789
78.615
78.488
78.409
78.378
78.396
78.461
78.571
78.723
78.913
79.138
79.392
79.669
79.963
80.267
80.575
80.877
81.166
81.432
81.667
81.861
82.004
82.085
82.096
82.026
81.866
81.607
81.24
80.756
80.15
79.413
78.539
77.521
76.355
75.035
73.557
71.919
70.118
68.153
66.025
63.733
61.28
58.67
55.904
52.99
49.931
46.734
43.407
39.959
36.397
32.732
28.975
25.138
21.233
17.273
13.27
9.238
5.189
1.137
-2.907
-6.928
-10.916
-14.857
-18.741
-22.554
-26.286
-29.925
-33.461
-36.885
-40.186
-43.358
-46.391
-49.281
-52.021
-54.608
-57.036
-59.303
-61.407
-63.346
-65.123
-66.736
-68.189
-69.484
-70.628
-71.626
-72.486
-73.216
-73.825
-74.321
-74.717
-75.022
-75.247
-75.404
-75.505
-75.56
-75.584
-75.59
-75.591
-75.602
-75.638
-75.713
-75.843
-76.043
-76.327
-76.707
-77.195
-77.802
-78.538
-79.41
-80.428
-81.598
-82.925
-84.414
-86.07
-87.894
-89.884
-92.036
-94.345
-96.806
-99.411
-102.152
-105.019
-108.007
-111.111
-114.335
-117.672
-121.117
-124.659
-128.287
-131.987
-135.746
-139.545
-143.351
-147.135
-150.866
-154.519
-158.076
-161.516
-164.812
-167.923
-170.813
-173.462
-175.866
-178.021
-179.913
-181.52
-182.842
-183.922
-184.843
-185.694
-186.561
-187.5
-188.586
-189.944
-191.655
-193.729
-196.072
-198.436
-200.584
-202.384
-203.699
-204.32
-204.179
-203.386
-202.31
-201.694
-202.232
-204.292
-208.14
-214.044
-221.962
-231.356
-241.144
-249.584
-254.86
-255.697
-251.084
-239.987
-221.72
-196.298
-164.474
-127.97
-89.052
-49.588
-11.337
23.53
52.695
73.938
85.345
85.92
75.133
52.028
16.024
-32.907
-93.113
-160.632
-232.963
-308.811
-387.794
-471.501
-555.398
-629.589
-684.811
-710.592
-705.128
-676.377
-631.865
-581.048
-529.17
-474.896
-419.33
-364.174
-312.257
-268.863
-236.507
-215.091
-203.704
-199.997
-201.366
-205.807
-210.88
-214.237
-214.674
-211.771
-205.688
-197.198
-187.252
-176.727
-166.783
-158.57
-152.608
-149.008
-147.569
-147.825
-149.323
-151.637
-154.211
-156.47
-158.072
-158.858
-158.803
-157.998
-156.496
-154.326
-151.562
-148.306
-144.652
-140.685
-136.468
-132.035
-127.448
-122.798
-118.188
-113.728
-109.494
-105.522
-101.832
-98.437
-95.339
-92.533
-89.995
-87.687
-85.567
-83.599
-81.746
-79.981
-78.264
-76.55
-74.787
-72.923
-70.92
-68.751
-66.396
-63.839
-61.067
-58.071
-54.852
-51.414
-47.762
-43.897
-39.82
-35.529
-31.028
-26.325
-21.427
-16.345
-11.087
-5.661
-0.08
5.646
11.505
17.485
23.574
29.758
36.023
42.351
48.725
55.123
61.524
67.908
74.251
80.53
86.722
92.802
98.748
104.536
110.143
115.547
120.725
125.654
130.315
134.687
138.75
142.487
145.88
148.914
151.576
153.852
155.731
157.204
158.263
158.902
159.117
158.906
158.268
157.205
155.719
153.815
151.502
148.787
145.682
142.198
138.351
134.155
129.629
124.792
119.662
114.263
108.615
102.743
96.67
90.421
84.022
77.497
70.873
64.176
57.43
50.661
43.894
37.152
30.461
23.841
17.315
10.904
4.627
-1.496
-7.45
-13.218
-18.786
-24.14
-29.271
-34.169
-38.825
-43.233
-47.389
-51.289
-54.933
-58.319
-61.45
-64.329
-66.96
-69.347
-71.499
-73.423
-75.127
-76.62
-77.913
-79.015
-79.938
-80.692
-81.288
-81.738
-82.053
-82.244
-82.322
-82.299
-82.184
-81.988
-81.72
-81.391
-81.007
-80.577
-80.109
-79.608
-79.08
-78.53
-77.962
-77.381
-76.788
-76.187
-75.577
-74.961
-74.338
-73.708
-73.07
-72.423
-71.766
-71.097
-70.415
-69.719
-69.007
-68.278
-67.531
-66.765
-65.978
-65.17
-64.341
-63.489
-62.614
-61.716
-60.796
-59.854
-58.89
-57.907
-56.905
-55.886
-54.853
-53.807
-52.751
-51.688
-50.621
-49.553
-48.488
-47.428
-46.379
-45.343
-44.324
-43.327
-42.354
-41.408
-40.491
-39.606
-38.754
-37.937
-37.155
-36.409
-35.699
-35.026
-34.388
-33.786
-33.22
-32.686
-32.186
-31.715
-31.274
-30.859
-30.469
-30.102
-29.754
-29.423
-29.107
-28.804
-28.509
-28.22
-27.934
-27.647
-27.356
-27.056
-26.744
-26.418
-26.074
-25.71
-25.323
-24.911
-24.474
-24.009
-23.516
-22.994
-22.442
-21.861
-21.249
-20.608
-19.937
-19.236
-18.506
-17.749
-16.963
-16.152
-15.314
-14.451
-13.564
-12.653
-11.719
-10.763
-9.786
-8.791
-7.778
-6.75
-5.709
-4.657
-3.598
-2.534
-1.467
-0.4
0.665
1.726
2.781
3.828
4.864
5.889
6.9
7.895
8.873
9.831
10.768
11.682
12.572
13.436
14.273
15.081
15.858
16.604
17.316
17.992
18.632
19.234
19.797
20.321
20.807
21.255
21.666
22.043
22.388
22.702
22.99
23.253
23.496
23.72
23.93
24.129
24.321
24.512
24.704
24.903
25.113
25.34
25.588
25.861
26.164
26.502
26.878
27.298
27.764
28.282
28.856
29.489
30.186
30.949
31.781
32.684
33.659
34.705
35.821
37.006
38.256
39.569
40.94
42.364
43.835
45.349
46.899
48.477
50.077
51.688
53.303
54.91
56.498
58.057
59.575
61.041
62.443
63.772
65.019
66.175
67.234
68.187
69.027
69.748
70.34
70.796
71.111
71.28
71.301
71.176
70.905
70.491
69.944
69.272
68.481
67.573
66.545
65.395
64.131
62.762
61.299
59.757
58.148
56.491
54.818
53.155
51.529
49.964
48.459
47.021
45.664
44.412
43.3
42.358
41.585
40.973
40.526
40.242
40.125
40.171
40.316
40.492
40.637
40.685
40.614
40.414
40.018
39.322
38.269
36.888
35.341
33.915
32.83
32.224
32.253
33.159
35.131
38.093
41.661
45.113
47.689
48.943
48.556
46.129
41.563
35.26
28.097
21.592
17.465
16.932
21.138
31.43
48.632
72.962
104.004
140.326
180.115
221.75
262.979
300.76
332.177
354.222
364.182
360.21
340.357
304.087
253.545
191.467
121.184
43.29
-45.467
-144.164
-247.554
-343.211
-411.836
-442.811
-434.461
-394.739
-341.854
-288.017
-238.89
-195.761
-153.63
-110.982
-70.315
-34.27
-6.481
11.855
22.371
26.888
27.264
25.154
21.82
18.595
16.799
17.033
19.179
22.836
27.481
32.599
37.721
42.239
45.44
47.018
47.056
45.822
43.733
41.139
38.311
35.595
33.384
31.922
31.303
31.522
32.475
34.078
36.273
38.973
42.066
45.438
48.98
52.586
56.17
59.658
62.975
66.061
68.876
71.389
73.592
75.494
77.112
78.467
79.59
80.509
81.255
81.87
82.397
82.886
83.389
83.949
84.597
85.363
86.268
87.328
88.556
89.956
91.525
93.263
95.173
97.256
99.515
101.95
104.559
107.338
110.284
113.39
116.654
120.071
123.636
127.344
131.188
135.163
139.264
143.483
147.809
152.23
156.733
161.304
165.927
170.586
175.264
179.943
184.603
189.228
193.799
198.297
202.702
206.996
211.158
215.171
219.014
222.668
226.115
229.335
232.311
235.024
237.457
239.594
241.419
242.919
244.079
244.888
245.336
245.413
245.11
244.423
243.345
241.873
240.007
237.745
235.091
232.047
228.621
224.818
220.649
216.123
211.254
206.054
200.538
194.723
188.626
182.266
175.664
168.839
161.816
154.617
147.267
139.789
132.211
124.557
116.852
109.123
101.394
93.69
86.037
78.457
70.973
63.61
56.387
49.325
42.443
35.759
29.288
23.045
17.041
11.289
5.797
0.572
-4.379
-9.052
-13.444
-17.555
-21.383
-24.932
-28.205
-31.208
-33.945
-36.427
-38.661
-40.659
-42.43
-43.988
-45.344
-46.512
-47.505
-48.337
-49.023
-49.575
-50.01
-50.34
-50.581
-50.745
-50.846
-50.895
-50.905
-50.886
-50.849
-50.801
-50.75
-50.706
-50.673
-50.658
-50.666
-50.7
-50.764
-50.859
-50.988
-51.151
-51.347
-51.576
-51.834
-52.121
-52.434
-52.768
-53.122
-53.491
-53.871
-54.257
-54.646
-55.032
-55.41
-55.777
-56.126
-56.455
-56.758
-57.032
-57.274
-57.481
-57.651
-57.782
-57.873
-57.921
-57.928
-57.892
-57.812
-57.691
-57.528
-57.326
-57.085
-56.808
-56.498
-56.158
-55.79
-55.398
-54.985
-54.555
-54.11
-53.654
-53.191
-52.725
-52.259
-51.798
-51.344
-50.902
-50.476
-50.069
-49.683
-49.322
-48.988
-48.683
-48.409
-48.168
-47.961
-47.789
-47.653
-47.554
-47.492
-47.466
-47.477
-47.524
-47.605
-47.718
-47.864
-48.038
-48.241
-48.469
-48.721
-48.995
-49.288
-49.599
-49.926
-50.265
-50.615
-50.973
-51.336
-51.703
-52.071
-52.438
-52.802
-53.162
-53.515
-53.86
-54.195
-54.52
-54.833
-55.133
-55.42
-55.691
-55.947
-56.188
-56.412
-56.622
-56.815
-56.994
-57.158
-57.309
-57.446
-57.57
-57.682
-57.782
-57.872
-57.951
-58.02
-58.08
-58.132
-58.176
-58.213
-58.243
-58.267
-58.284
-58.294
-58.298
-58.295
-58.285
-58.267
-58.241
-58.207
-58.165
-58.114
-58.053
-57.982
-57.9
-57.807
-57.701
-57.579
-57.444
-57.296
-57.134
-56.96
-56.772
-56.567
-56.348
-56.121
-55.877
-55.605
-55.302
-54.955
-54.576
-54.183
-53.763
-53.301
-52.834
-52.393
-52
-51.692
-51.441
-51.193
-50.982
-50.865
-50.698
-50.308
-49.801
-49.169
-48.382
-47.816
-46.462
-43.336
-39.847
-36.424
-35.652
-40.629
-47.931
-55.275
-59.264
-55.229
-47.303
-38.987
-32.681
-32.352
-35.166
-38.249
-40.966
-41.564
-41.06
-40.762
-40.422
-40.205
-40.024
-39.614
-39.149
-38.766
-38.419
-38.098
-37.818
-37.576
-37.361
-37.167
-36.969
-36.736
-36.48
-36.213
-35.93
-35.633
-35.321
-34.992
-34.65
-34.298
-33.936
-33.562
-33.177
-32.78
-32.374
-31.958
-31.534
-31.104
-30.668
-30.229
-29.788
-29.348
-28.912
-28.481
-28.058
-27.647
-27.249
-26.869
-26.508
-26.171
-25.858
-25.574
-25.32
-25.098
-24.91
-24.758
-24.642
-24.563
-24.522
-24.52
-24.556
-24.631
-24.745
-24.897
-25.087
-25.316
-25.581
-25.883
-26.22
-26.59
-26.993
-27.425
-27.886
-28.371
-28.879
-29.407
-29.951
-30.507
-31.072
-31.641
-32.212
-32.78
-33.34
-33.891
-34.427
-34.947
-35.447
-35.925
-36.378
-36.804
-37.202
-37.57
-37.906
-38.208
-38.477
-38.71
-38.906
-39.066
-39.189
-39.274
-39.322
-39.331
-39.303
-39.238
-39.135
-38.997
-38.822
-38.613
-38.37
-38.096
-37.791
-37.458
-37.099
-36.714
-36.306
-35.877
-35.427
-34.958
-34.47
-33.964
-33.441
-32.901
-32.345
-31.772
-31.183
-30.578
-29.959
-29.324
-28.675
-28.012
-27.334
-26.643
-25.939
-25.224
-24.497
-23.761
-23.017
-22.271
-21.525
-20.784
-20.051
-19.331
-18.628
-17.945
-17.286
-16.652
-16.044
-15.466
-14.921
-14.415
-13.95
-13.533
-13.164
-12.849
-12.593
-12.398
-12.266
-12.199
-12.194
-12.257
-12.396
-12.621
-12.942
-13.368
-13.897
-14.532
-15.274
-16.119
-17.055
-18.065
-19.12
-20.197
-21.284
-22.361
-23.411
-24.405
-25.308
-26.092
-26.732
-27.213
-27.534
-27.694
-27.696
-27.561
-27.319
-27.024
-26.764
-26.618
-26.664
-26.99
-27.666
-28.807
-30.577
-33.036
-36.155
-39.816
-43.782
-47.876
-52.05
-56.155
-59.936
-63.327
-66.363
-69.327
-72.842
-77.21
-82.254
-87.74
-93.42
-98.781
-103.321
-106.217
-106.038
-101.884
-93.614
-81.339
-65.437
-46.44
-24.491
0.15
26.569
54.249
83.104
113.102
144.4
176.732
208.576
237.851
262.598
280.246
287.978
283.095
262.798
226.507
176.905
116.818
48.268
-29.486
-119.067
-217.808
-316.153
-398.063
-447.411
-457.693
-433.381
-388.423
-337.934
-290.284
-247.176
-205.697
-163.57
-122.317
-85.967
-58.442
-40.991
-32.578
-31.032
-33.68
-38.663
-44.254
-48.219
-49.295
-47.132
-41.795
-34.096
-25.044
-15.329
-5.883
2.121
8.078
11.784
13.28
13.035
11.521
9.08
6.189
3.355
0.895
-0.984
-2.196
-2.8
-2.825
-2.281
-1.213
0.327
2.289
4.612
7.252
10.161
13.272
16.504
19.761
22.961
26.042
28.957
31.679
34.197
36.5
38.593
40.492
42.213
43.781
45.226
46.571
47.851
49.103
50.369
51.697
53.126
54.686
56.397
58.274
60.326
62.562
64.983
67.584
70.364
73.319
76.446
79.745
83.213
86.845
90.632
94.565
98.634
102.833
107.154
111.587
116.125
120.758
125.477
130.274
135.138
140.058
145.018
150.005
155.002
159.993
164.962
169.892
174.765
179.564
184.273
188.876
193.357
197.7
201.888
205.906
209.739
213.372
216.791
219.981
222.929
225.622
228.046
230.19
232.043
233.594
234.832
235.75
236.339
236.592
236.503
236.067
235.282
234.145
232.655
230.814
228.624
226.087
223.21
219.998
216.459
212.601
208.434
203.968
199.215
194.188
188.899
183.364
177.598
171.618
165.439
159.081
152.561
145.9
139.118
132.234
125.27
118.247
111.186
104.11
97.039
89.994
82.997
76.068
69.227
62.492
55.882
49.414
43.103
36.964
31.011
25.256
19.71
14.382
9.282
4.415
-0.211
-4.593
-8.726
-12.61
-16.242
-19.624
-22.757
-25.645
-28.291
-30.701
-32.881
-34.839
-36.583
-38.123
-39.469
-40.632
-41.624
-42.457
-43.143
-43.695
-44.126
-44.45
-44.678
-44.824
-44.9
-44.917
-44.887
-44.821
-44.729
-44.621
-44.505
-44.39
-44.285
-44.194
-44.126
-44.086
-44.079
-44.11
-44.181
-44.296
-44.457
-44.666
-44.923
-45.229
-45.583
-45.984
-46.431
-46.921
-47.452
-48.02
-48.621
-49.252
-49.908
-50.585
-51.277
-51.981
-52.69
-53.401
-54.108
-54.807
-55.494
-56.164
-56.813
-57.438
-58.036
-58.601
-59.133
-59.628
-60.082
-60.495
-60.864
-61.187
-61.463
-61.689
-61.866
-61.993
-62.068
-62.092
-62.065
-61.987
-61.859
-61.681
-61.456
-61.183
-60.867
-60.507
-60.109
-59.673
-59.203
-58.702
-58.173
-57.619
-57.044
-56.451
-55.842
-55.221
-54.59
-53.954
-53.314
-52.673
-52.035
-51.401
-50.774
-50.156
-49.549
-48.955
-48.377
-47.814
-47.27
-46.745
-46.241
-45.759
-45.299
-44.863
-44.451
-44.062
-43.696
-43.353
-43.03
-42.728
-42.443
-42.175
-41.921
-41.678
-41.446
-41.221
-41
-40.783
-40.565
-40.344
-40.119
-39.887
-39.645
-39.392
-39.126
-38.846
-38.55
-38.237
-37.907
-37.557
-37.189
-36.8
-36.39
-35.96
-35.508
-35.036
-34.543
-34.031
-33.501
-32.955
-32.393
-31.819
-31.234
-30.64
-30.041
-29.438
-28.834
-28.232
-27.633
-27.042
-26.46
-25.891
-25.337
-24.799
-24.28
-23.781
-23.304
-22.848
-22.416
-22.008
-21.623
-21.263
-20.927
-20.617
-20.331
-20.069
-19.829
-19.609
-19.409
-19.226
-19.062
-18.913
-18.777
-18.654
-18.54
-18.436
-18.338
-18.244
-18.149
-18.05
-17.943
-17.829
-17.708
-17.58
-17.442
-17.29
-17.119
-16.926
-16.709
-16.467
-16.198
-15.898
-15.567
-15.209
-14.83
-14.438
-14.037
-13.624
-13.197
-12.748
-12.284
-11.825
-11.389
-11.004
-10.677
-10.39
-10.141
-9.939
-9.786
-9.711
-9.697
-9.66
-9.633
-9.732
-10.062
-10.772
-11.848
-13.056
-14.308
-15.68
-17.037
-18.142
-18.713
-18.292
-16.879
-15.012
-12.973
-10.832
-8.844
-7.25
-6.434
-7.077
-9.219
-12.206
-15.647
-19.303
-22.897
-26.329
-29.304
-31.221
-32.011
-32.123
-31.847
-31.428
-31.028
-30.584
-30.191
-30.132
-30.441
-30.949
-31.532
-32.051
-32.451
-32.813
-33.15
-33.412
-33.594
-33.71
-33.778
-33.835
-33.888
-33.91
-33.884
-33.801
-33.661
-33.474
-33.25
-32.991
-32.701
-32.382
-32.038
-31.676
-31.299
-30.915
-30.53
-30.147
-29.773
-29.416
-29.082
-28.78
-28.515
-28.287
-28.098
-27.95
-27.844
-27.783
-27.768
-27.801
-27.883
-28.013
-28.192
-28.421
-28.699
-29.025
-29.396
-29.81
-30.265
-30.757
-31.282
-31.838
-32.42
-33.023
-33.642
-34.272
-34.907
-35.541
-36.167
-36.778
-37.368
-37.929
-38.455
-38.939
-39.376
-39.76
-40.085
-40.348
-40.544
-40.669
-40.721
-40.697
-40.594
-40.412
-40.148
-39.803
-39.378
-38.874
-38.294
-37.64
-36.916
-36.127
-35.276
-34.37
-33.415
-32.416
-31.381
-30.317
-29.234
-28.143
-27.053
-25.978
-24.929
-23.922
-22.967
-22.078
-21.267
-20.544
-19.918
-19.397
-18.989
-18.701
-18.54
-18.513
-18.628
-18.889
-19.3
-19.86
-20.568
-21.422
-22.416
-23.543
-24.794
-26.166
-27.655
-29.268
-31.006
-32.865
-34.833
-36.899
-39.044
-41.25
-43.492
-45.737
-47.952
-50.107
-52.175
-54.144
-55.996
-57.711
-59.259
-60.596
-61.688
-62.527
-63.116
-63.465
-63.59
-63.503
-63.227
-62.83
-62.392
-61.986
-61.687
-61.55
-61.609
-61.937
-62.646
-63.787
-65.311
-67.052
-68.7
-69.968
-70.684
-70.62
-69.479
-67.177
-63.86
-59.969
-56.31
-53.568
-52.061
-52.142
-54.136
-57.757
-62.284
-66.513
-68.596
-66.997
-60.796
-48.959
-30.475
-5.247
26.254
62.921
102.555
143.036
182.997
220.66
253.479
279.694
296.434
299.511
288.354
263.487
227.77
190.053
152.592
110.932
57.12
-24.76
-137.842
-268.505
-395.129
-486.176
-524.037
-512.227
-464.642
-404.221
-346.992
-294.46
-242.775
-188.91
-132.692
-80.983
-42.71
-18.403
-6.263
-2.578
-1.25
-2.152
-5.647
-10.104
-14.908
-17.815
-17.126
-13.185
-6.603
1.569
10.193
18.281
24.786
29.084
31.005
30.73
28.762
25.591
21.666
17.535
13.723
10.574
8.27
6.846
6.22
6.346
7.185
8.659
10.674
13.14
15.973
19.099
22.446
25.915
29.384
32.745
35.918
38.848
41.504
43.868
45.93
47.691
49.167
50.384
51.367
52.148
52.755
53.222
53.596
53.929
54.278
54.69
55.202
55.84
56.623
57.566
58.678
59.965
61.425
63.055
64.858
66.836
68.992
71.328
73.841
76.527
79.379
82.394
85.566
88.893
92.369
95.988
99.747
103.641
107.664
111.809
116.067
120.425
124.87
129.388
133.964
138.583
143.227
147.878
152.517
157.124
161.68
166.164
170.552
174.825
178.96
182.936
186.735
190.336
193.721
196.875
199.779
202.417
204.772
206.825
208.561
209.964
211.019
211.711
212.028
211.96
211.5
210.645
209.393
207.738
205.676
203.205
200.331
197.064
193.416
189.405
185.051
180.381
175.436
170.256
164.882
159.354
153.698
147.937
142.101
136.215
130.309
124.403
118.494
112.577
106.651
100.716
94.771
88.812
82.799
76.703
70.502
64.183
57.756
51.237
44.636
37.974
31.288
24.642
18.136
11.896
6.023
0.62
-4.222
-8.418
-11.846
-14.399
-15.997
-16.575
-16.09
-14.512
-11.802
-7.933
-2.93
3.143
10.163
17.96
26.38
35.261
44.454
53.825
63.216
72.481
81.506
90.19
98.441
106.171
113.273
119.638
125.207
129.958
133.923
137.191
139.845
141.986
143.699
145.053
146.122
146.965
147.617
148.1
148.431
148.627
148.731
148.804
148.888
149.011
149.16
149.279
149.295
149.115
148.676
147.947
146.912
145.565
143.894
141.883
139.565
137.028
134.3
131.309
127.863
123.753
118.945
113.614
108.001
102.231
96.386
90.681
85.67
81.979
79.911
79.273
79.401
79.793
80.244
80.456
79.706
77.148
72.189
64.876
56.215
47.075
37.808
28.773
20.54
13.794
9.245
7.102
6.496
6.622
7.16
7.822
8.419
8.712
8.204
6.627
4.435
2.057
-0.321
-2.528
-4.624
-6.661
-8.458
-9.88
-11.054
-12.098
-13.086
-14.103
-15.083
-15.959
-16.759
-17.502
-18.191
-18.83
-19.406
-19.899
-20.325
-20.7
-21.029
-21.324
-21.584
-21.805
-21.992
-22.145
-22.271
-22.377
-22.463
-22.53
-22.574
-22.591
-22.579
-22.539
-22.47
-22.371
-22.239
-22.073
-21.875
-21.647
-21.39
-21.107
-20.798
-20.463
-20.104
-19.724
-19.326
-18.911
-18.483
-18.045
-17.6
-17.151
-16.702
-16.257
-15.819
-15.393
-14.982
-14.59
-14.221
-13.879
-13.568
-13.291
-13.054
-12.858
-12.708
-12.606
-12.555
-12.558
-12.616
-12.732
-12.905
-13.137
-13.426
-13.773
-14.176
-14.633
-15.142
-15.701
-16.305
-16.953
-17.639
-18.36
-19.111
-19.888
-20.685
-21.498
-22.321
-23.149
-23.977
-24.8
-25.612
-26.409
-27.186
-27.937
-28.659
-29.346
-29.994
-30.599
-31.158
-31.667
-32.122
-32.522
-32.863
-33.146
-33.368
-33.53
-33.631
-33.672
-33.655
-33.581
-33.454
-33.274
-33.047
-32.775
-32.462
-32.113
-31.731
-31.323
-30.892
-30.443
-29.981
-29.51
-29.036
-28.562
-28.094
-27.635
-27.19
-26.764
-26.361
-25.984
-25.639
-25.328
-25.055
-24.823
-24.636
-24.496
-24.404
-24.362
-24.372
-24.433
-24.546
-24.711
-24.927
-25.192
-25.504
-25.861
-26.26
-26.699
-27.173
-27.679
-28.214
-28.774
-29.355
-29.953
-30.565
-31.187
-31.815
-32.446
-33.075
-33.701
-34.318
-34.923
-35.514
-36.087
-36.639
-37.168
-37.669
-38.143
-38.586
-38.997
-39.375
-39.719
-40.029
-40.304
-40.547
-40.758
-40.938
-41.09
-41.217
-41.322
-41.408
-41.478
-41.537
-41.588
-41.634
-41.679
-41.727
-41.781
-41.845
-41.919
-42.007
-42.112
-42.239
-42.389
-42.568
-42.775
-43.008
-43.268
-43.562
-43.878
-44.208
-44.548
-44.882
-45.211
-45.562
-45.926
-46.288
-46.692
-47.15
-47.66
-48.264
-48.942
-49.595
-50.218
-50.841
-51.275
-51.366
-51.268
-50.932
-50.265
-49.784
-48.641
-45.743
-42.504
-39.381
-38.588
-44.227
-53.845
-63.76
-70.146
-65.764
-51.681
-34.807
-19.814
-14.051
-19.319
-28.648
-37.932
-43.047
-41.086
-36.183
-30.952
-26.209
-23.619
-21.922
-20.011
-18.286
-16.548
-14.887
-13.595
-12.504
-11.477
-10.563
-9.756
-9.021
-8.382
-7.868
-7.482
-7.254
-7.212
-7.342
-7.632
-8.083
-8.684
-9.43
-10.326
-11.373
-12.573
-13.921
-15.411
-17.027
-18.756
-20.582
-22.481
-24.416
-26.353
-28.258
-30.11
-31.9
-33.617
-35.241
-36.736
-38.062
-39.192
-40.125
-40.871
-41.436
-41.826
-42.05
-42.133
-42.15
-42.191
-42.334
-42.65
-43.188
-43.973
-45.08
-46.65
-48.713
-51.193
-53.9
-56.47
-58.621
-60.232
-61.074
-60.829
-59.456
-57.096
-54.22
-51.807
-50.571
-50.823
-52.982
-57.291
-63.407
-70.727
-78.021
-83.222
-84.75
-81.466
-72.016
-55.491
-31.677
-0.717
36.309
77.293
120.416
163.721
204.384
239.558
266.555
282.566
285.275
272.986
243.761
197.594
137.573
67.047
-10.339
-94.126
-187.928
-290.979
-397.772
-494.828
-561.649
-586.581
-567.746
-514.603
-448.093
-382.808
-325.49
-277.497
-232.916
-189.644
-150.621
-118.506
-96.146
-83.945
-79.388
-79.621
-82.483
-85.96
-87.928
-87.21
-83.397
-76.519
-67.438
-57.245
-46.627
-36.513
-28.126
-22.082
-18.621
-17.725
-18.907
-21.668
-25.668
-30.409
-35.286
-39.89
-43.944
-47.31
-50.038
-52.164
-53.677
-54.613
-55.031
-54.986
-54.549
-53.78
-52.706
-51.372
-49.844
-48.198
-46.54
-44.975
-43.572
-42.374
-41.401
-40.657
-40.141
-39.849
-39.753
-39.808
-39.973
-40.202
-40.46
-40.715
-40.927
-41.049
-41.03
-40.815
-40.368
-39.663
-38.683
-37.415
-35.85
-33.982
-31.819
-29.373
-26.656
-23.677
-20.446
-16.969
-13.259
-9.333
-5.208
-0.903
3.565
8.179
12.92
17.768
22.704
27.71
32.767
37.857
42.96
48.056
53.123
58.138
63.079
67.924
72.651
77.237
81.662
85.906
89.952
93.782
97.38
100.732
103.823
106.643
109.18
111.426
113.371
115.009
116.337
117.35
118.048
118.43
118.497
118.252
117.698
116.842
115.69
114.248
112.526
110.532
108.277
105.774
103.037
100.079
96.914
93.556
90.022
86.327
82.49
78.528
74.456
70.292
66.052
61.756
57.424
53.076
48.729
44.399
40.099
35.847
31.666
