Name
Date of Birth,"Aug 26, 1996"
Recorded Date,2018-12-13 15:39:28 -0500
Classification,Sinus Rhythm
Symptoms,
Software Version,1.1
Device,"Watch4,2"
Sample Rate,512.352 hertz


Lead,Lead I
Unit,µV

-953.978
-958.566
-1002.513
-1008.181
-1042.273
-1038.908
-1005.545
-989.038
-996.823
-1016.974
-1037.163
-1047.142
-1042.157
-1023.443
-997.332
-971.476
-950.63
-936.418
-927.765
-922.075
-917.909
-915.028
-913.358
-912.704
-912.012
-909.857
-905.597
-899.248
-891.069
-881.372
-870.385
-858.431
-846.234
-834.709
-824.404
-815.492
-807.919
-801.509
-796.142
-791.722
-788.018
-784.676
-781.436
-778.152
-774.772
-771.345
-767.898
-764.422
-760.937
-757.482
-754.103
-750.857
-747.786
-744.895
-742.184
-739.64
-737.239
-734.982
-732.888
-730.971
-729.241
-727.687
-726.292
-725.045
-723.938
-722.945
-722.019
-721.075
-720.042
-718.882
-717.575
-716.134
-714.575
-712.893
-711.078
-709.125
-707.034
-704.814
-702.47
-699.985
-697.34
-694.534
-691.586
-688.543
-685.438
-682.269
-679.024
-675.671
-672.171
-668.501
-664.638
-660.539
-656.171
-651.494
-646.467
-641.079
-635.33
-629.214
-622.742
-615.897
-608.672
-601.078
-593.118
-584.803
-576.166
-567.224
-557.981
-548.538
-539.05
-529.733
-520.882
-512.729
-505.418
-499.073
-493.781
-489.402
-485.57
-481.816
-477.61
-472.563
-466.465
-459.158
-450.446
-440.485
-429.851
-419.098
-408.67
-398.766
-389.304
-380.352
-372.298
-365.033
-358.061
-351.012
-343.575
-335.933
-327.193
-314.545
-295.121
-266.053
-227.927
-185.254
-138.647
-86.386
-21.97
68.218
190.374
345.879
531.905
733.227
935.399
1123.558
1280.172
1397.495
1473.327
1511.566
1523.957
1520.989
1511.427
1500.032
1487.619
1474.571
1458.907
1441.013
1422.656
1404.697
1390.912
1382.925
1380.158
1382.565
1387.984
1394.348
1400.574
1405.047
1406.56
1404.773
1399.673
1391.597
1381.217
1369.198
1356.262
1343.346
1331.454
1321.15
1312.558
1305.595
1299.979
1295.433
1291.741
1288.581
1285.54
1282.375
1279.006
1275.424
1271.722
1267.965
1264.151
1260.325
1256.565
1252.933
1249.505
1246.341
1243.458
1240.891
1238.679
1236.84
1235.395
1234.344
1233.658
1233.31
1233.273
1233.514
1234.017
1234.756
1235.687
1236.757
1237.891
1239.01
1240.047
1240.937
1241.61
1242.007
1242.063
1241.73
1240.991
1239.839
1238.266
1236.27
1233.833
1230.947
1227.61
1223.831
1219.625
1215.007
1209.99
1204.594
1198.862
1192.848
1186.613
1180.222
1173.714
1167.113
1160.447
1153.74
1147.024
1140.341
1133.735
1127.254
1120.97
1114.966
1109.327
1104.137
1099.452
1095.305
1091.72
1088.71
1086.297
1084.515
1083.396
1082.974
1083.278
1084.32
1086.086
1088.554
1091.656
1095.303
1099.394
1103.811
1108.451
1113.226
1118.049
1122.843
1127.528
1132.008
1136.179
1139.946
1143.205
1145.879
1147.915
1149.27
1149.932
1149.913
1149.238
1147.958
1146.129
1143.799
1141.024
1137.865
1134.384
1130.672
1126.829
1122.943
1119.106
1115.391
1111.853
1108.547
1105.518
1102.794
1100.395
1098.318
1096.547
1095.063
1093.832
1092.801
1091.904
1091.059
1090.176
1089.178
1087.977
1086.49
1084.643
1082.35
1079.547
1076.155
1072.061
1067.254
1061.816
1055.917
1049.867
1043.958
1038.374
1033.393
1029.367
1026.354
1024.188
1022.437
1020.306
1017.248
1013.093
1007.521
1000.184
991.252
981.292
971.459
963.522
958.759
957.939
962.158
972.585
989.875
1014.149
1044.492
1079.1
1116.521
1155.3
1192.962
1226.467
1252.747
1268.69
1272.099
1261.48
1234.787
1191.974
1136.179
1070.504
998.54
920.78
833.139
736.856
638.692
551.535
493.847
475.213
495.676
548.257
618.416
695.079
770.27
835.467
886.641
921.483
940.604
950.927
958.668
967.041
977.037
985.875
991.661
995.659
999.79
1006.294
1016.295
1029.14
1043.652
1058.667
1073.15
1086.09
1096.85
1105.193
1111.11
1114.94
1117.142
1118.105
1118.312
1118.352
1118.633
1119.427
1120.926
1123.148
1126.105
1129.837
1134.314
1139.478
1145.285
1151.673
1158.578
1165.952
1173.717
1181.778
1190.051
1198.43
1206.818
1215.132
1223.289
1231.239
1238.962
1246.447
1253.698
1260.733
1267.566
1274.233
1280.778
1287.245
1293.682
1300.131
1306.629
1313.215
1319.93
1326.8
1333.84
1341.04
1348.37
1355.795
1363.288
1370.818
1378.36
1385.888
1393.376
1400.807
1408.171
1415.462
1422.677
1429.811
1436.857
1443.83
1450.763
1457.713
1464.755
1471.965
1479.407
1487.146
1495.241
1503.743
1512.69
1522.101
1531.981
1542.337
1553.175
1564.513
1576.366
1588.725
1601.56
1614.816
1628.415
1642.276
1656.316
1670.442
1684.552
1698.545
1712.329
1725.825
1738.96
1751.651
1763.793
1775.254
1785.897
1795.588
1804.194
1811.601
1817.702
1822.387
1825.552
1827.108
1826.976
1825.092
1821.396
1815.823
1808.307
1798.801
1787.295
1773.815
1758.416
1741.169
1722.166
1701.502
1679.289
1655.662
1630.77
1604.765
1577.806
1550.043
1521.628
1492.731
1463.54
1434.243
1405.009
1375.992
1347.331
1319.168
1291.646
1264.911
1239.103
1214.337
1190.705
1168.296
1147.2
1127.524
1109.381
1092.865
1078.023
1064.919
1053.652
1044.255
1036.685
1030.75
1026.058
1022.182
1018.742
1015.319
1011.472
1006.887
1001.427
995.34
989.305
983.963
979.786
977.041
975.725
975.571
975.831
974.837
970.145
959.234
939.724
909.722
867.872
813.056
744.962
664.758
574.788
477.99
377.62
276.653
177.862
84.298
-1.519
-78.391
-146.181
-205.533
-257.62
-303.581
-344.698
-382.877
-419.975
-457.075
-494.635
-532.59
-570.54
-608.154
-645.035
-680.374
-713.29
-743.321
-770.355
-794.603
-816.484
-836.349
-854.522
-871.472
-887.711
-903.615
-919.426
-935.236
-951.031
-966.83
-982.678
-998.618
-1014.673
-1030.859
-1047.197
-1063.713
-1080.44
-1097.402
-1114.609
-1132.057
-1149.737
-1167.64
-1185.738
-1204.021
-1222.469
-1241.058
-1259.768
-1278.554
-1297.365
-1316.168
-1334.931
-1353.629
-1372.252
-1390.773
-1409.151
-1427.351
-1445.32
-1463.006
-1480.381
-1497.417
-1514.091
-1530.387
-1546.28
-1561.753
-1576.801
-1591.399
-1605.512
-1619.093
-1632.067
-1644.378
-1655.999
-1666.908
-1677.11
-1686.614
-1695.41
-1703.493
-1710.86
-1717.507
-1723.442
-1728.675
-1733.209
-1737.069
-1740.298
-1742.964
-1745.165
-1746.987
-1748.494
-1749.737
-1750.749
-1751.557
-1752.194
-1752.688
-1753.057
-1753.323
-1753.497
-1753.593
-1753.622
-1753.577
-1753.436
-1753.155
-1752.666
-1751.91
-1750.837
-1749.407
-1747.603
-1745.414
-1742.833
-1739.864
-1736.517
-1732.805
-1728.75
-1724.38
-1719.732
-1714.867
-1709.857
-1704.794
-1699.792
-1694.961
-1690.411
-1686.247
-1682.551
-1679.394
-1676.836
-1674.925
-1673.703
-1673.214
-1673.475
-1674.494
-1676.263
-1678.738
-1681.859
-1685.542
-1689.677
-1694.15
-1698.838
-1703.617
-1708.371
-1713.002
-1717.418
-1721.537
-1725.284
-1728.572
-1731.335
-1733.522
-1735.092
-1736.039
-1736.373
-1736.119
-1735.328
-1734.06
-1732.38
-1730.363
-1728.087
-1725.606
-1722.97
-1720.22
-1717.39
-1714.527
-1711.67
-1708.845
-1706.071
-1703.35
-1700.673
-1698.027
-1695.39
-1692.723
-1689.987
-1687.135
-1684.117
-1680.899
-1677.454
-1673.763
-1669.812
-1665.582
-1661.054
-1656.222
-1651.083
-1645.636
-1639.886
-1633.836
-1627.491
-1620.867
-1613.983
-1606.858
-1599.517
-1591.979
-1584.255
-1576.357
-1568.295
-1560.078
-1551.716
-1543.216
-1534.581
-1525.818
-1516.934
-1507.938
-1498.84
-1489.647
-1480.366
-1471.002
-1461.561
-1452.05
-1442.477
-1432.849
-1423.175
-1413.464
-1403.723
-1393.964
-1384.195
-1374.426
-1364.664
-1354.918
-1345.193
-1335.496
-1325.834
-1316.212
-1306.634
-1297.107
-1287.635
-1278.223
-1268.876
-1259.598
-1250.392
-1241.263
-1232.214
-1223.246
-1214.362
-1205.564
-1196.853
-1188.229
-1179.692
-1171.243
-1162.881
-1154.605
-1146.414
-1138.307
-1130.282
-1122.335
-1114.465
-1106.669
-1098.942
-1091.281
-1083.684
-1076.145
-1068.661
-1061.228
-1053.842
-1046.499
-1039.194
-1031.923
-1024.682
-1017.467
-1010.271
-1003.09
-995.919
-988.753
-981.586
-974.414
-967.231
-960.034
-952.818
-945.577
-938.31
-931.01
-923.675
-916.302
-908.887
-901.428
-893.922
-886.367
-878.763
-871.109
-863.405
-855.651
-847.848
-839.997
-832.101
-824.16
-816.178
-808.158
-800.103
-792.016
-783.903
-775.768
-767.616
-759.454
-751.288
-743.125
-734.974
-726.84
-718.732
-710.658
-702.624
-694.636
-686.7
-678.821
-671.006
-663.259
-655.585
-647.99
-640.478
-633.053
-625.716
-618.468
-611.306
-604.228
-597.226
-590.297
-583.435
-576.639
-569.908
-563.239
-556.629
-550.074
-543.567
-537.097
-530.648
-524.199
-517.732
-511.231
-504.683
-498.08
-491.411
-484.668
-477.837
-470.898
-463.837
-456.634
-449.271
-441.736
-434.025
-426.156
-418.158
-410.072
-401.931
-393.751
-385.55
-377.363
-369.229
-361.19
-353.305
-345.605
-338.147
-331.049
-324.337
-317.949
-311.731
-305.345
-298.462
-290.89
-282.366
-272.594
-261.615
-249.65
-237.205
-225.305
-214.737
-205.94
-199.496
-195.752
-194.391
-194.786
-195.639
-194.792
-190.583
-181.686
-166.429
-143.694
-113.123
-74.821
-30.098
18.702
69.571
120.16
167.147
207.503
238.4
257.045
261.799
251.623
225.081
183.065
129.339
67.136
0.284
-70.273
-148.095
-231.902
-315.743
-388.685
-434.48
-444.108
-417.759
-361.627
-287.313
-204.896
-121.121
-43.934
17.702
58.147
75.585
75.313
69.252
65.332
67.114
74.04
80.99
86.532
91.967
98.492
108.259
121.428
136.428
152.147
167.414
181.055
192.627
201.994
209.135
214.436
218.373
221.298
223.617
225.789
228.099
230.719
233.771
237.246
241.126
245.424
250.111
255.137
260.471
266.077
271.915
277.96
284.167
290.477
296.837
303.192
309.488
315.68
321.718
327.555
333.159
338.516
343.619
348.474
353.094
357.496
361.705
365.753
369.67
373.487
377.233
380.935
384.619
388.313
392.043
395.836
399.71
403.675
407.74
411.91
416.193
420.594
425.121
429.779
434.577
439.525
444.631
449.899
455.329
460.913
466.64
472.498
478.48
484.585
490.814
497.168
503.64
510.221
516.89
523.62
530.378
537.121
543.81
550.409
556.896
563.267
569.525
575.688
581.764
587.755
593.654
599.453
605.147
610.739
616.243
621.683
627.099
632.544
638.074
643.752
649.618
655.686
661.947
668.36
674.886
681.494
688.156
694.848
701.543
708.206
714.794
721.261
727.536
733.528
739.123
744.187
748.601
752.27
755.129
757.156
758.333
758.642
758.069
756.601
754.228
750.946
746.75
741.627
735.587
728.676
720.974
712.601
703.684
694.342
684.674
674.754
664.652
654.443
644.199
633.988
623.882
613.958
604.31
595.057
586.309
578.141
570.593
563.669
557.355
551.629
546.48
541.892
537.851
534.335
531.321
528.79
526.719
525.066
523.768
522.733
521.861
521.074
520.321
519.567
518.792
517.981
517.119
516.202
515.23
514.2
513.113
511.959
510.73
509.429
508.075
506.7
505.346
504.041
502.8
501.63
500.529
499.496
498.524
497.596
496.691
495.792
494.883
493.955
493.001
492.009
490.964
489.845
488.632
487.31
485.87
484.304
482.61
480.786
478.835
476.764
474.584
472.304
469.934
467.481
464.952
462.355
459.702
457.001
454.263
451.499
448.717
445.927
443.139
440.36
437.6
434.863
432.158
429.489
426.864
424.288
421.767
419.306
416.909
414.58
412.32
410.133
408.02
405.981
404.015
402.122
400.3
398.547
396.861
395.238
393.673
392.165
390.706
389.294
387.922
386.586
385.28
383.999
382.737
381.489
380.249
379.012
377.772
376.525
375.264
373.985
372.684
371.355
369.995
368.601
367.171
365.701
364.19
362.638
361.044
359.408
357.73
356.011
354.253
352.458
350.628
348.764
346.872
344.952
343.01
341.049
339.073
337.086
335.093
333.098
331.106
329.121
327.148
325.192
323.258
321.35
319.473
317.632
315.831
314.075
312.367
310.711
309.109
307.564
306.077
304.65
303.284
301.978
300.733
299.548
298.422
297.354
296.341
295.381
294.471
293.609
292.79
292.009
291.264
290.549
289.859
289.19
288.535
287.889
287.246
286.601
285.945
285.273
284.578
283.852
283.089
282.282
281.423
280.507
279.526
278.476
277.351
276.145
274.854
273.473
271.998
270.427
268.755
266.98
265.101
263.116
261.023
258.824
256.517
254.103
251.584
248.961
246.236
243.412
240.492
237.479
234.377
231.192
227.928
224.592
221.19
217.728
214.215
210.657
207.062
203.439
199.796
196.142
192.484
188.832
185.193
181.577
177.993
174.447
170.949
167.507
164.128
160.82
157.589
154.443
151.387
148.428
145.572
142.823
140.187
137.668
135.269
132.995
130.847
128.829
126.942
125.186
123.562
122.07
120.709
119.477
118.372
117.391
116.532
115.79
115.161
114.641
114.224
113.905
113.678
113.536
113.473
113.482
113.556
113.687
113.869
114.093
114.353
114.64
114.948
115.267
115.592
115.913
116.225
116.518
116.787
117.024
117.222
117.375
117.477
117.522
117.503
117.417
117.258
117.022
116.705
116.303
115.813
115.233
114.56
113.794
112.932
111.974
110.921
109.773
108.53
107.193
105.766
104.249
102.645
100.957
99.189
97.344
95.425
93.438
91.387
89.277
87.113
84.901
82.648
80.358
78.039
75.698
73.339
70.971
68.601
66.235
63.879
61.543
59.231
56.951
54.709
52.511
50.365
48.274
46.245
44.283
42.392
40.577
38.842
37.19
35.624
34.149
32.766
31.478
30.286
29.192
28.198
27.303
26.507
25.81
25.211
24.708
24.299
23.982
23.754
23.612
23.553
23.571
23.663
23.825
24.05
24.334
24.671
25.057
25.485
25.949
26.445
26.966
27.507
28.062
28.625
29.189
29.749
30.298
30.829
31.335
31.808
32.241
32.629
32.965
33.242
33.454
33.596
33.662
33.648
33.548
33.357
33.071
32.684
32.192
31.594
30.884
30.062
29.123
28.066
26.891
25.596
24.182
22.648
20.992
19.215
17.32
15.315
13.205
10.999
8.706
6.34
3.919
1.458
-1.027
-3.516
-5.999
-8.461
-10.888
-13.267
-15.581
-17.819
-19.978
-22.054
-24.048
-25.963
-27.81
-29.605
-31.384
-33.178
-35.019
-36.952
-39.009
-41.224
-43.627
-46.228
-49.043
-52.096
-55.4
-58.979
-62.859
-67.024
-71.476
-76.23
-81.185
-86.194
-91.037
-95.345
-98.818
-101.234
-102.301
-101.824
-99.882
-96.689
-92.722
-88.743
-85.289
-82.817
-81.927
-82.848
-85.299
-88.659
-91.777
-93.209
-91.85
-86.494
-75.646
-58.397
-34.584
-4.774
29.57
66.642
104.662
141.105
172.599
195.95
208.495
208.27
194.044
164.852
120.105
61.602
-6.418
-79.736
-154.903
-231.407
-310.309
-388.77
-459.556
-512.181
-537.13
-531.577
-499.834
-450.108
-389.821
-324.895
-260.533
-202.875
-159.752
-135.734
-129.447
-134.02
-140.886
-144.425
-143.614
-141.279
-139.392
-137.875
-135.62
-130.615
-122.365
-111.998
-100.737
-89.912
-80.696
-73.558
-68.666
-66.096
-65.553
-66.611
-68.893
-71.939
-75.25
-78.522
-81.567
-84.236
-86.509
-88.355
-89.7
-90.532
-90.871
-90.727
-90.127
-89.098
-87.654
-85.835
-83.706
-81.325
-78.759
-76.065
-73.283
-70.458
-67.634
-64.858
-62.178
-59.627
-57.218
-54.954
-52.826
-50.818
-48.915
-47.092
-45.315
-43.551
-41.77
-39.947
-38.065
-36.11
-34.064
-31.911
-29.627
-27.197
-24.611
-21.861
-18.936
-15.824
-12.507
-8.979
-5.243
-1.303
2.829
7.146
11.639
16.297
21.109
26.063
31.148
36.354
41.67
47.075
52.539
58.019
63.458
68.807
74.029
79.096
83.991
88.713
93.265
97.662
101.927
106.077
110.118
114.06
117.912
121.696
125.445
129.21
133.066
137.082
141.326
145.848
150.673
155.803
161.215
166.867
172.699
178.654
184.679
190.72
196.724
202.627
208.36
213.832
218.931
223.535
227.512
230.75
233.162
234.683
235.272
234.918
233.632
231.434
228.358
224.436
219.7
214.188
207.937
201.008
193.479
185.441
177.002
168.262
159.314
150.246
141.144
132.071
123.067
114.162
105.366
96.693
88.166
79.804
71.63
63.655
55.883
48.317
40.957
33.795
26.818
20.003
13.31
6.719
0.222
-6.175
-12.457
-18.61
-24.632
-30.512
-36.239
-41.803
-47.197
-52.42
-57.482
-62.382
-67.109
-71.642
-75.944
-79.992
-83.772
-87.277
-90.501
-93.443
-96.099
-98.473
-100.577
-102.42
-104.008
-105.342
-106.415
-107.228
-107.792
-108.122
-108.241
-108.169
-107.919
-107.509
-106.958
-106.281
-105.495
-104.61
-103.633
-102.574
-101.445
-100.258
-99.031
-97.777
-96.508
-95.233
-93.964
-92.71
-91.481
-90.285
-89.13
-88.022
-86.97
-85.981
-85.064
-84.227
-83.475
-82.814
-82.248
-81.781
-81.415
-81.153
-80.996
-80.943
-80.996
-81.152
-81.411
-81.772
-82.232
-82.789
-83.439
-84.179
-85.004
-85.91
-86.891
-87.943
-89.06
-90.235
-91.463
-92.739
-94.056
-95.408
-96.789
-98.193
-99.615
-101.049
-102.489
-103.93
-105.367
-106.795
-108.21
-109.609
-110.986
-112.341
-113.668
-114.967
-116.234
-117.469
-118.669
-119.834
-120.963
-122.055
-123.111
-124.131
-125.116
-126.068
-126.987
-127.875
-128.734
-129.566
-130.372
-131.155
-131.916
-132.657
-133.381
-134.089
-134.782
-135.463
-136.132
-136.792
-137.443
-138.086
-138.723
-139.353
-139.977
-140.596
-141.209
-141.817
-142.42
-143.019
-143.612
-144.201
-144.784
-145.361
-145.931
-146.492
-147.045
-147.586
-148.114
-148.628
-149.126
-149.608
-150.07
-150.513
-150.936
-151.338
-151.717
-152.073
-152.406
-152.715
-152.999
-153.258
-153.493
-153.704
-153.891
-154.056
-154.199
-154.321
-154.423
-154.506
-154.569
-154.613
-154.638
-154.645
-154.632
-154.602
-154.553
-154.488
-154.408
-154.315
-154.209
-154.092
-153.966
-153.832
-153.69
-153.541
-153.383
-153.218
-153.044
-152.861
-152.669
-152.468
-152.261
-152.047
-151.83
-151.608
-151.383
-151.153
-150.919
-150.678
-150.429
-150.17
-149.901
-149.622
-149.335
-149.046
-148.76
-148.478
-148.198
-147.918
-147.627
-147.319
-146.987
-146.618
-146.206
-145.748
-145.244
-144.706
-144.147
-143.575
-142.995
-142.402
-141.791
-141.163
-140.524
-139.882
-139.255
-138.659
-138.114
-137.656
-137.316
-137.117
-137.068
-137.153
-137.34
-137.604
-137.927
-138.294
-138.694
-139.106
-139.503
-139.864
-140.162
-140.375
-140.469
-140.387
-140.065
-139.447
-138.503
-137.236
-135.675
-133.847
-131.774
-129.488
-127.029
-124.455
-121.829
-119.2
-116.609
-114.085
-111.671
-109.432
-107.451
-105.806
-104.551
-103.711
-103.288
-103.286
-103.709
-104.54
-105.732
-107.208
-108.886
-110.697
-112.592
-114.539
-116.497
-118.413
-120.219
-121.851
-123.26
-124.41
-125.27
-125.809
-125.99
-125.798
-125.261
-124.432
-123.378
-122.161
-120.822
-119.386
-117.885
-116.348
-114.807
-113.291
-111.817
-110.403
-109.072
-107.857
-106.794
-105.909
-105.197
-104.636
-104.196
-103.839
-103.544
-103.295
-103.074
-102.872
-102.682
-102.501
-102.337
-102.193
-102.067
-101.95
-101.826
-101.683
-101.521
-101.345
-101.166
-101.002
-100.861
-100.753
-100.687
-100.668
-100.697
-100.773
-100.888
-101.033
-101.202
-101.396
-101.617
-101.871
-102.158
-102.471
-102.8
-103.136
-103.469
-103.791
-104.087
-104.341
-104.543
-104.687
-104.78
-104.826
-104.826
-104.773
-104.648
-104.439
-104.142
-103.76
-103.304
-102.779
-102.193
-101.562
-100.917
-100.292
-99.709
-99.169
-98.65
-98.136
-97.62
-97.11
-96.621
-96.164
-95.729
-95.3
-94.86
-94.39
-93.862
-93.229
-92.414
-91.343
-89.969
-88.278
-86.289
-84.023
-81.486
-78.679
-75.605
-72.271
-68.711
-64.968
-61.08
-57.108
-53.134
-49.269
-45.659
-42.45
-39.755
-37.661
-36.223
-35.484
-35.499
-36.308
-37.942
-40.43
-43.772
-47.955
-52.959
-58.723
-65.154
-72.131
-79.494
-87.076
-94.725
-102.298
-109.655
-116.676
-123.243
-129.253
-134.622
-139.262
-143.119
-146.157
-148.36
-149.749
-150.362
-150.269
-149.581
-148.432
-146.967
-145.339
-143.69
-142.184
-141.023
-140.316
-140.076
-140.203
-140.432
-140.551
-140.452
-139.948
-138.775
-136.809
-134.137
-131.225
-128.926
-127.876
-128.306
-130.327
-134.069
-139.582
-146.527
-153.794
-159.549
-162.134
-160.501
-153.926
-141.61
-122.555
-96.085
-62.61
-23.804
18.613
63.307
108.584
152.349
190.965
219.253
234.34
235.454
222.79
199.893
168.007
124.695
68.111
-7.351
-105.63
-222.082
-347.14
-463.908
-552.104
-598.916
-600.887
-563.697
-500.21
-423.98
-344.52
-268.625
-202.205
-150.392
-117.788
-106.398
-113.275
-129.256
-144.176
-150.542
-143.414
-126.446
-106.858
-89.067
-77.741
-72.112
-67.112
-60.804
-51.831
-40.597
-30.324
-22.383
-16.785
-13.522
-11.854
-11.32
-11.815
-12.742
-13.504
-13.869
-13.595
-12.825
-10.99
-6.392
0.606
8.448
14.443
13.702
6.608
-2.091
-7.594
-3.092
11.559
29.815
46.606
56.403
58.339
57.199
55.865
56.373
59.267
62.564
65.414
67.895
69.976
71.994
74.049
75.913
77.544
79.025
80.393
81.679
82.935
84.208
85.546
87.016
88.649
90.437
92.387
94.507
96.801
99.275
101.933
104.775
107.808
111.039
114.473
118.112
121.959
126.014
130.28
134.759
139.45
144.353
149.467
154.792
160.328
166.077
172.036
178.196
184.547
191.075
197.762
204.588
211.528
218.551
225.627
232.729
239.833
246.92
253.97
260.959
267.862
274.649
281.296
287.784
294.098
300.229
306.176
311.941
317.544
323.019
328.393
333.687
338.91
344.053
349.106
354.06
358.902
363.622
368.205
372.626
376.862
380.886
384.655
388.116
391.19
393.775
395.773
397.091
397.661
397.438
396.39
394.488
391.717
388.066
383.528
378.102
371.787
364.576
356.485
347.542
337.804
327.368
316.338
304.824
292.933
280.743
268.33
255.766
243.115
230.44
217.811
205.296
192.969
180.929
169.267
158.074
147.432
137.383
127.948
119.14
110.961
103.426
96.556
90.36
84.844
80.012
75.856
72.375
69.562
67.373
65.748
64.608
63.863
63.447
63.309
63.399
63.673
64.074
64.546
65.051
65.56
66.046
66.48
66.821
67.025
67.077
66.986
66.782
66.514
66.214
65.913
65.647
65.459
65.401
65.518
65.834
66.362
67.111
68.099
69.353
70.908
72.776
74.951
77.416
80.135
83.085
86.245
89.58
93.053
96.619
100.241
103.901
107.59
111.3
115.022
118.74
122.432
126.095
129.733
133.357
136.995
140.662
144.363
148.106
151.896
155.735
159.624
163.55
167.484
171.403
175.28
179.088
182.81
186.416
189.865
193.112
196.092
198.748
201.045
202.954
204.45
205.525
206.167
206.372
206.166
205.567
204.595
203.277
201.63
199.683
197.484
195.083
192.55
189.967
187.396
184.895
182.523
180.316
178.315
176.559
175.051
173.804
172.83
172.133
171.717
171.585
171.718
172.094
172.684
173.428
174.271
175.153
176.01
176.801
177.486
178.025
178.397
178.584
178.561
178.317
177.843
177.127
176.166
174.956
173.494
171.806
169.933
167.923
165.825
163.672
161.489
159.303
157.134
155
152.916
150.89
148.922
147.024
145.207
143.487
141.881
140.386
138.985
137.652
136.362
135.101
133.859
132.627
131.393
130.147
128.889
127.62
126.345
125.062
123.764
122.44
121.077
119.672
118.227
116.75
115.247
113.72
112.169
110.596
109.005
107.396
105.765
104.107
102.415
100.686
98.919
97.117
95.282
93.414
91.512
89.576
87.607
85.605
83.573
81.51
79.417
77.296
75.151
72.987
70.809
68.622
66.43
64.238
62.052
59.875
57.713
55.57
53.449
51.356
49.294
47.269
45.284
43.344
41.452
39.612
37.826
36.098
34.429
32.822
31.276
29.793
28.373
27.016
25.721
24.487
23.312
22.195
21.132
20.122
19.16
18.243
17.368
16.53
15.725
14.949
14.197
13.465
12.748
12.044
11.346
10.652
9.958
9.26
8.554
7.838
7.108
6.361
5.597
4.812
4.004
3.174
2.321
1.443
0.541
-0.385
-1.335
-2.306
-3.298
-4.309
-5.337
-6.379
-7.434
-8.499
-9.57
-10.645
-11.722
-12.797
-13.868
-14.933
-15.988
-17.031
-18.06
-19.072
-20.065
-21.037
-21.986
-22.91
-23.809
-24.682
-25.527
-26.346
-27.137
-27.902
-28.64
-29.354
-30.043
-30.709
-31.353
-31.977
-32.583
-33.174
-33.752
-34.319
-34.878
-35.433
-35.987
-36.541
-37.098
-37.658
-38.225
-38.801
-39.386
-39.983
-40.592
-41.218
-41.862
-42.528
-43.219
-43.936
-44.678
-45.448
-46.245
-47.069
-47.917
-48.787
-49.677
-50.586
-51.517
-52.473
-53.452
-54.451
-55.461
-56.477
-57.494
-58.503
-59.497
-60.463
-61.393
-62.286
-63.145
-63.978
-64.786
-65.566
-66.308
-67.004
-67.65
-68.246
-68.798
-69.311
-69.787
-70.237
-70.679
-71.137
-71.628
-72.157
-72.71
-73.274
-73.841
-74.402
-74.96
-75.514
-76.054
-76.57
-77.046
-77.464
-77.807
-78.055
-78.171
-78.116
-77.857
-77.371
-76.665
-75.749
-74.632
-73.333
-71.867
-70.254
-68.529
-66.729
-64.897
-63.088
-61.351
-59.731
-58.289
-57.08
-56.159
-55.581
-55.372
-55.553
-56.138
-57.125
-58.512
-60.288
-62.425
-64.881
-67.604
-70.521
-73.567
-76.692
-79.837
-82.955
-85.991
-88.884
-91.589
-94.062
-96.27
-98.189
-99.8
-101.084
-102.053
-102.743
-103.21
-103.541
-103.799
-104.022
-104.257
-104.555
-104.975
-105.597
-106.494
-107.719
-109.353
-111.514
-114.235
-117.461
-121.016
-124.57
-127.809
-130.521
-132.435
-133.227
-132.857
-131.529
-129.761
-128.44
-128.217
-129.333
-132.102
-136.863
-143.413
-151.113
-158.677
-164.132
-166.012
-163.515
-155.674
-141.447
-120.357
-92.396
-58.638
-21.257
18.217
58.528
97.611
133.085
161.597
179.631
186.017
179.784
160.921
130.615
87.854
33.411
-32.479
-111.894
-204.393
-309.004
-419.866
-524.511
-608.804
-658.811
-668.493
-639.612
-579.347
-501.6
-417.386
-337.576
-274.334
-230.596
-207.153
-200.146
-197.666
-194.11
-187.657
-178.415
-171.977
-170.218
-170.973
-172.424
-171.852
-168.049
-161.984
-154.667
-146.995
-139.926
-134.401
-130.963
-129.793
-130.839
-133.659
-137.777
-142.847
-148.375
-153.76
-158.597
-162.628
-165.721
-167.934
-169.306
-169.834
-169.577
-168.623
-167.054
-164.972
-162.462
-159.587
-156.432
-153.096
-149.684
-146.309
-143.07
-140.033
-137.24
-134.716
-132.47
-130.505
-128.812
-127.369
-126.143
-125.097
-124.194
-123.397
-122.671
-121.974
-121.262
-120.49
-119.616
-118.611
-117.454
-116.13
-114.63
-112.944
-111.068
-109.001
-106.746
-104.304
-101.675
-98.858
-95.849
-92.649
-89.257
-85.676
-81.906
-77.946
-73.796
-69.455
-64.924
-60.205
-55.3
-50.21
-44.938
-39.484
-33.853
-28.057
-22.105
-16.013
-9.795
-3.468
2.947
9.424
15.939
22.469
28.99
35.487
41.944
48.343
54.665
60.89
67.004
73
78.877
84.629
90.252
95.743
101.102
106.344
111.476
116.499
121.41
126.19
130.818
135.274
139.537
143.581
147.369
150.852
153.972
156.684
158.946
160.713
161.944
162.577
162.564
161.873
160.481
158.383
155.584
152.087
147.905
143.067
137.614
131.604
125.111
118.19
110.898
103.292
95.429
87.381
79.215
70.983
62.729
54.492
46.304
38.203
30.222
22.375
14.674
7.117
-0.307
-7.598
-14.749
-21.755
-28.607
-35.301
-41.831
-48.184
-54.344
-60.297
-66.035
-71.554
-76.853
-81.923
-86.754
-91.327
-95.619
-99.61
-103.28
-106.612
-109.597
-112.234
-114.522
-116.465
-118.069
-119.337
-120.265
-120.845
-121.065
-120.912
-120.383
-119.487
-118.243
-116.686
-114.856
-112.8
-110.561
-108.169
-105.656
-103.049
-100.377
-97.669
-94.963
-92.3
-89.729
-87.305
-85.073
-83.065
-81.296
-79.763
-78.448
-77.323
-76.362
-75.547
-74.862
-74.297
-73.841
-73.484
-73.212
-73.009
-72.85
-72.698
-72.525
-72.309
-72.039
-71.721
-71.366
-70.997
-70.635
-70.294
-69.985
-69.711
-69.474
-69.271
-69.097
-68.947
-68.822
-68.727
-68.666
-68.643
-68.654
-68.69
-68.738
-68.781
-68.803
-68.788
-68.725
-68.606
-68.426
-68.183
-67.878
-67.513
-67.091
-66.611
-66.073
-65.476
-64.821
-64.11
-63.347
-62.536
-61.682
-60.791
-59.868
-58.918
-57.944
-56.952
-55.943
-54.921
-53.887
-52.844
-51.797
-50.75
-49.705
-48.668
-47.642
-46.633
-45.643
-44.676
-43.734
-42.821
-41.936
-41.083
-40.261
-39.471
-38.715
-37.99
-37.299
-36.64
-36.013
-35.417
-34.851
-34.315
-33.806
-33.324
-32.867
-32.434
-32.024
-31.635
-31.267
-30.917
-30.586
-30.271
-29.972
-29.687
-29.415
-29.155
-28.904
-28.662
-28.427
-28.199
-27.976
-27.758
-27.546
-27.338
-27.135
-26.937
-26.746
-26.56
-26.38
-26.208
-26.043
-25.885
-25.736
-25.595
-25.464
-25.341
-25.228
-25.124
-25.028
-24.941
-24.861
-24.788
-24.72
-24.658
-24.599
-24.543
-24.488
-24.433
-24.378
-24.319
-24.256
-24.187
-24.108
-24.019
-23.917
-23.799
-23.663
-23.506
-23.325
-23.117
-22.881
-22.613
-22.311
-21.972
-21.594
-21.176
-20.714
-20.208
-19.656
-19.057
-18.409
-17.712
-16.966
-16.17
-15.324
-14.428
-13.483
-12.488
-11.445
-10.355
-9.218
-8.036
-6.811
-5.545
-4.239
-2.896
-1.519
-0.11
1.327
2.79
4.276
5.78
7.3
8.832
10.373
11.919
13.466
15.012
16.553
18.085
19.607
21.114
22.604
24.075
25.523
26.946
28.341
29.707
31.04
32.339
33.602
34.826
36.011
37.155
38.257
39.316
40.331
41.301
42.227
43.108
43.945
44.738
45.488
46.196
46.863
47.489
48.078
48.63
49.146
49.629
50.081
50.502
50.897
51.266
51.612
51.937
52.245
52.537
52.816
53.086
53.35
53.61
53.871
54.136
54.408
54.692
54.991
55.309
55.65
56.016
56.412
56.841
57.307
57.812
58.359
58.952
59.594
60.286
61.032
61.835
62.695
63.616
64.598
65.644
66.755
67.932
69.176
70.487
71.866
73.312
74.824
76.402
78.043
79.746
81.506
83.321
85.186
87.096
89.047
91.032
93.044
95.077
97.124
99.178
101.229
103.27
105.291
107.285
109.24
111.148
112.997
114.777
116.476
118.083
119.586
120.975
122.239
123.366
124.349
125.179
125.849
126.35
126.675
126.817
126.77
126.529
126.093
125.458
124.626
123.6
122.386
120.992
119.425
117.69
115.787
113.719
111.49
109.106
106.576
103.914
101.133
98.254
95.306
92.313
89.302
86.293
83.301
80.346
77.449
74.636
71.944
69.405
67.045
64.893
62.964
61.251
59.747
58.419
57.22
56.125
55.089
54.056
52.981
51.794
50.427
48.825
46.897
44.513
41.62
38.247
34.541
30.815
27.368
24.432
22.296
21.301
21.612
23.108
25.329
27.451
28.667
28.52
26.64
22.592
16.353
8.53
0.319
-6.368
-9.481
-7.607
0.511
16.362
40.786
73.795
114.602
161.11
210.703
261.165
309.869
353.379
388.45
412
421.542
416.132
395.1
357.668
304.349
236.844
158.524
74.765
-10.622
-95.166
-176.771
-255.315
-326.53
-383.724
-421.738
-433.131
-417.536
-380.258
-326.286
-266.786
-208.485
-153.564
-105.84
-62.733
-23.513
9.866
38.645
60.757
75.07
83.053
84.698
81.914
77.457
72.855
69.709
68.722
69.555
71.9
75.516
79.897
84.361
88.149
90.4
90.704
89.18
86.082
81.763
76.612
70.976
65.277
60
55.44
51.698
48.781
46.586
45.024
44.051
43.579
43.502
43.73
44.176
44.777
45.488
46.25
46.996
47.658
48.168
48.47
48.537
48.357
47.938
47.303
46.471
45.473
44.345
43.128
41.863
40.592
39.348
38.164
37.074
36.114
35.32
34.726
34.356
34.224
34.342
34.718
35.358
36.265
37.438
38.872
40.564
42.511
44.711
47.161
49.856
52.79
55.955
59.345
62.954
66.775
70.801
75.026
79.44
84.034
88.798
93.72
98.787
103.984
109.298
114.716
120.226
125.813
131.461
137.15
142.86
148.567
154.243
159.855
165.37
170.757
175.993
181.057
185.936
190.618
195.09
199.344
203.365
207.139
210.657
213.905
216.871
219.555
221.959
224.099
225.998
227.665
229.101
230.301
231.242
231.903
232.255
232.259
231.883
231.098
229.88
228.219
226.108
223.531
220.473
216.908
212.801
208.14
202.926
197.158
190.861
184.056
176.779
169.093
161.057
152.726
144.154
135.372
126.411
117.309
108.099
98.818
89.516
80.216
70.946
61.746
52.644
43.681
34.893
26.286
17.864
9.636
1.608
-6.197
-13.748
-21.029
-28.014
-34.674
-40.984
-46.903
-52.4
-57.47
-62.112
-66.345
-70.199
-73.682
-76.799
-79.563
-81.981
-84.068
-85.845
-87.324
-88.523
-89.469
-90.196
-90.747
-91.162
-91.46
-91.653
-91.738
-91.701
-91.541
-91.26
-90.856
-90.334
-89.701
-88.962
-88.133
-87.228
-86.255
-85.216
-84.108
-82.928
-81.682
-80.38
-79.037
-77.673
-76.304
-74.945
-73.613
-72.317
-71.067
-69.87
-68.725
-67.63
-66.588
-65.598
-64.666
-63.793
-62.982
-62.233
-61.545
-60.915
-60.343
-59.825
-59.358
-58.938
-58.563
-58.231
-57.94
-57.691
-57.482
-57.312
-57.179
-57.083
-57.021
-56.991
-56.989
-57.015
-57.064
-57.134
-57.225
-57.333
-57.458
-57.598
-57.752
-57.917
-58.094
-58.28
-58.475
-58.676
-58.882
-59.091
-59.303
-59.515
-59.726
-59.933
-60.137
-60.335
-60.525
-60.706
-60.876
-61.034
-61.178
-61.306
-61.416
-61.508
-61.58
-61.631
-61.659
-61.663
-61.644
-61.598
-61.527
-61.428
-61.302
-61.147
-60.962
-60.747
-60.503
-60.228
-59.923
-59.589
-59.226
-58.836
-58.419
-57.978
-57.514
-57.029
-56.526
-56.007
-55.475
-54.932
-54.381
-53.827
-53.271
-52.716
-52.167
-51.627
-51.098
-50.584
-50.088
-49.615
-49.166
-48.747
-48.359
-48.007
-47.694
-47.424
-47.198
-47.021
-46.895
-46.823
-46.808
-46.85
-46.952
-47.114
-47.338
-47.624
-47.972
-48.381
-48.85
-49.378
-49.964
-50.605
-51.3
-52.046
-52.84
-53.68
-54.563
-55.485
-56.442
-57.432
-58.45
-59.492
-60.553
-61.63
-62.718
-63.811
-64.906
-65.996
-67.077
-68.144
-69.19
-70.213
-71.205
-72.163
-73.083
-73.96
-74.791
-75.573
-76.304
-76.981
-77.603
-78.168
-78.677
-79.127
-79.518
-79.852
-80.127
-80.345
-80.506
-80.612
-80.663
-80.663
-80.612
-80.514
-80.37
-80.184
-79.959
-79.698
-79.406
-79.086
-78.743
-78.382
-78.007
-77.623
-77.236
-76.849
-76.467
-76.093
-75.731
-75.383
-75.051
-74.736
-74.439
-74.161
-73.902
-73.662
-73.44
-73.237
-73.052
-72.885
-72.735
-72.6
-72.476
-72.362
-72.255
-72.15
-72.044
-71.93
-71.802
-71.657
-71.488
-71.289
-71.052
-70.77
-70.432
-70.029
-69.557
-69.011
-68.389
-67.691
-66.918
-66.078
-65.181
-64.237
-63.253
-62.236
-61.19
-60.122
-59.038
-57.94
-56.834
-55.722
-54.596
-53.449
-52.27
-51.039
-49.737
-48.339
-46.811
-45.13
-43.277
-41.239
-39.015
-36.602
-34.004
-31.24
-28.33
-25.302
-22.199
-19.068
-15.961
-12.946
-10.086
-7.446
-5.102
-3.116
-1.539
-0.416
0.224
0.358
-0.023
-0.911
-2.28
-4.095
-6.301
-8.84
-11.641
-14.622
-17.705
-20.812
-23.86
-26.773
-29.485
-31.934
-34.074
-35.862
-37.277
-38.326
-39.034
-39.449
-39.628
-39.612
-39.465
-39.267
-39.099
-39.057
-39.229
-39.684
-40.515
-41.848
-43.746
-46.19
-49.037
-51.988
-54.725
-56.988
-58.499
-58.932
-58.115
-56.169
-53.531
-51
-49.421
-49.317
-51.098
-55.227
-61.751
-70.066
-78.998
-86.658
-90.956
-90.431
-83.791
-69.545
-46.848
-15.705
23.072
67.391
114.603
162.498
208.601
249.675
282.641
304.69
313.639
308.562
288.922
254.127
204.267
141.583
70.098
-6.093
-83.817
-163.325
-245.955
-329.184
-406.471
-466.424
-498.41
-499.929
-474.484
-431.474
-380.458
-324.11
-265.103
-206.43
-151.557
-108.662
-81.036
-65.613
-58.552
-53.644
-48.24
-44.526
-43.321
-44.588
-46.822
-47.108
-44.363
-38.836
-31.154
-22.381
-13.249
-4.502
2.85
8.236
11.512
12.843
12.662
11.339
9.175
6.597
4.103
2.049
0.656
-0.016
-0.034
0.564
1.755
3.485
5.682
8.26
11.14
14.259
17.567
21.01
24.524
28.037
31.473
34.763
37.841
40.67
43.23
45.509
47.51
49.245
50.728
51.989
53.066
53.994
54.809
55.547
56.237
56.915
57.618
58.381
59.239
60.218
61.333
62.6
64.028
65.626
67.402
69.358
71.492
73.806
76.302
78.98
81.846
84.9
88.139
91.562
95.167
98.953
102.923
107.079
111.423
115.952
120.66
125.544
130.593
135.797
141.136
146.585
152.119
157.718
163.362
169.035
174.719
180.393
186.037
191.628
197.147
202.579
207.908
213.119
218.206
223.171
228.025
232.795
237.502
242.159
246.779
251.366
255.917
260.43
264.887
269.269
273.553
277.71
281.713
285.539
289.147
292.488
295.503
298.114
300.245
301.826
302.779
303.032
302.531
301.231
299.108
296.155
292.361
287.727
282.254
275.938
268.792
260.835
252.087
242.587
232.387
221.54
210.128
198.238
185.949
173.337
160.466
147.391
134.174
120.879
107.567
94.316
81.199
68.292
55.691
43.476
31.725
20.514
9.886
-0.127
-9.497
-18.202
-26.222
-33.537
-40.143
-46.042
-51.243
-55.769
-59.648
-62.917
-65.634
-67.855
-69.648
-71.096
-72.263
-73.209
-73.992
-74.662
-75.274
-75.877
-76.505
-77.184
-77.933
-78.764
-79.694
-80.737
-81.899
-83.19
-84.598
-86.095
-87.659
-89.262
-90.876
-92.471
-94.003
-95.436
-96.752
-97.939
-98.993
-99.912
-100.687
-101.302
-101.747
-102.002
-102.061
-101.932
-101.613
-101.118
-100.464
-99.672
-98.779
-97.819
-96.808
-95.758
-94.675
-93.563
-92.431
-91.29
-90.147
-89.016
-87.907
-86.828
-85.792
-84.802
-83.858
-82.958
-82.088
-81.24
-80.409
-79.594
-78.798
-78.025
-77.277
-76.559
-75.878
-75.239
-74.643
-74.095
-73.593
-73.14
-72.738
-72.392
-72.107
-71.886
-71.735
-71.654
-71.647
-71.713
-71.852
-72.061
-72.338
-72.677
-73.076
-73.53
-74.037
-74.591
-75.189
-75.826
-76.497
-77.199
-77.926
-78.672
-79.433
-80.202
-80.975
-81.746
-82.511
-83.265
-84.003
-84.722
-85.417
-86.085
-86.722
-87.324
-87.889
-88.414
-88.895
-89.331
-89.719
-90.059
-90.348
-90.587
-90.775
-90.914
-91.003
-91.045
-91.041
-90.993
-90.904
-90.776
-90.612
-90.415
-90.19
-89.937
-89.663
-89.369
-89.06
-88.738
-88.408
-88.071
-87.732
-87.393
-87.058
-86.728
-86.406
-86.096
-85.799
-85.519
-85.257
-85.016
-84.798
-84.605
-84.438
-84.299
-84.189
-84.109
-84.059
-84.041
-84.053
-84.094
-84.165
-84.264
-84.388
-84.537
-84.71
-84.902
-85.114
-85.342
-85.585
-85.84
-86.105
-86.379
-86.658
-86.94
-87.223
-87.504
-87.781
-88.052
-88.313
-88.562
-88.796
-89.013
-89.208
-89.38
-89.525
-89.639
-89.72
-89.765
-89.77
-89.734
-89.655
-89.53
-89.358
-89.138
-88.87
-88.554
-88.187
-87.771
-87.306
-86.791
-86.227
-85.613
-84.951
-84.24
-83.482
-82.678
-81.829
-80.936
-80.002
-79.027
-78.015
-76.967
-75.887
-74.775
-73.636
-72.473
-71.288
-70.086
-68.87
-67.644
-66.413
-65.181
-63.952
-62.73
-61.517
-60.316
-59.127
-57.952
-56.791
-55.647
-54.515
-53.398
-52.297
-51.216
-50.158
-49.125
-48.11
-47.11
-46.123
-45.146
-44.174
-43.201
-42.218
-41.22
-40.209
-39.187
-38.157
-37.118
-36.058
-34.97
-33.842
-32.668
-31.452
-30.195
-28.896
-27.559
-26.193
-24.815
-23.45
-22.11
-20.787
-19.476
-18.165
-16.853
-15.545
-14.244
-12.946
-11.652
-10.347
-9.017
-7.655
-6.238
-4.735
-3.112
-1.321
0.67
2.861
5.249
7.83
10.591
13.528
16.624
19.847
23.171
26.557
29.958
33.328
36.604
39.715
42.597
45.171
47.372
49.163
50.508
51.381
51.772
51.669
51.076
50.016
48.511
46.603
44.35
41.814
39.077
36.216
33.296
30.394
27.582
24.917
22.463
20.263
18.345
16.74
15.467
14.525
13.905
13.557
13.408
13.382
13.4
13.407
13.35
13.155
12.746
12.039
10.945
9.421
7.412
4.825
1.673
-1.948
-5.849
-9.656
-13.028
-15.723
-17.402
-17.813
-17.011
-15.195
-12.845
-10.733
-9.348
-9.056
-10.389
-13.486
-17.945
-23.01
-27.334
-29.306
-27.784
-21.61
-9.342
9.887
36.251
69.24
107.386
148.833
191.798
233.816
271.644
302.232
322.721
330.594
324.1
301.591
262.952
210.906
148.809
80.068
5.108
-79.376
-172.867
-270.12
-359.48
-423.852
-453.12
-445.689
-407.134
-349.815
-283.948
-216.01
-152.352
-98.961
-60.824
-40.742
-36.956
-41.739
-46.263
-46.138
-39.432
-28.097
-17.472
-8.615
-1.735
2.448
6.923
12.782
19.536
27.974
36.685
43.924
49.468
52.974
54.512
54.692
53.769
51.841
49.285
46.566
43.981
41.778
40.117
38.989
38.413
38.44
39.031
40.119
41.659
43.586
45.841
48.39
51.173
54.12
57.174
60.262
63.317
66.281
69.093
71.699
74.067
76.177
78.021
79.607
80.951
82.071
82.996
83.757
84.387
84.915
85.372
85.785
86.184
86.598
87.057
87.589
88.216
88.957
89.824
90.828
91.974
93.269
94.717
96.317
98.071
99.982
102.051
104.284
106.684
109.25
111.983
114.884
117.952
121.192
124.609
128.204
131.976
135.923
140.039
144.316
148.744
153.307
157.983
162.749
167.586
172.474
177.401
182.349
187.298
192.229
197.115
201.935
206.677
211.331
215.891
220.358
224.738
229.05
233.326
237.593
241.868
246.158
250.457
254.751
259.03
263.282
267.492
271.642
275.695
279.607
283.331
286.81
289.972
292.735
294.995
296.646
297.613
297.838
297.286
295.943
293.792
290.82
287.03
282.428
277.042
270.912
264.08
256.598
248.534
239.969
231.007
221.759
212.303
202.695
192.973
183.151
173.259
163.329
153.383
143.442
133.521
123.626
113.774
103.989
94.28
84.658
75.121
65.663
56.312
47.121
38.152
29.477
21.154
13.222
5.726
-1.295
-7.806
-13.777
-19.195
-24.062
-28.379
-32.148
-35.379
-38.083
-40.301
-42.101
-43.548
-44.71
-45.646
-46.395
-46.999
-47.502
-47.934
-48.322
-48.682
-49.02
-49.344
-49.665
-49.987
-50.307
-50.61
-50.863
-51.042
-51.125
-51.097
-50.954
-50.692
-50.306
-49.8
-49.184
-48.467
-47.665
-46.787
-45.839
-44.829
-43.771
-42.679
-41.574
-40.473
-39.387
-38.324
-37.292
-36.295
-35.337
-34.419
-33.536
-32.686
-31.867
-31.078
-30.32
-29.594
-28.898
-28.232
-27.592
-26.979
-26.391
-25.83
-25.293
-24.781
-24.293
-23.831
-23.396
-22.988
-22.61
-22.259
-21.938
-21.645
-21.38
-21.145
-20.937
-20.758
-20.608
-20.487
-20.395
-20.333
-20.301
-20.299
-20.328
-20.387
-20.476
-20.594
-20.742
-20.918
-21.121
-21.35
-21.604
-21.882
-22.183
-22.505
-22.846
-23.206
-23.583
-23.975
-24.382
-24.802
-25.233
-25.675
-26.125
-26.582
-27.046
-27.514
-27.985
-28.459
-28.932
-29.405
-29.876
-30.343
-30.805
-31.262
-31.712
-32.154
-32.588
-33.014
-33.431
-33.839
-34.239
-34.629
-35.012
-35.386
-35.752
-36.11
-36.462
-36.806
-37.145
-37.477
-37.804
-38.126
-38.443
-38.756
-39.066
-39.372
-39.676
-39.978
-40.28
-40.581
-40.883
-41.187
-41.494
-41.805
-42.12
-42.441
-42.769
-43.103
-43.445
-43.795
-44.153
-44.52
-44.894
-45.277
-45.668
-46.067
-46.473
-46.886
-47.306
-47.732
-48.164
-48.601
-49.042
-49.488
-49.938
-50.391
-50.846
-51.304
-51.762
-52.222
-52.68
-53.137
-53.591
-54.041
-54.485
-54.922
-55.35
-55.769
-56.176
-56.571
-56.951
-57.317
-57.667
-58
-58.315
-58.611
-58.888
-59.145
-59.382
-59.598
-59.794
-59.968
-60.12
-60.251
-60.359
-60.445
-60.508
-60.548
-60.564
-60.555
-60.522
-60.463
-60.379
-60.268
-60.132
-59.969
-59.781
-59.566
-59.324
-59.057
-58.763
-58.442
-58.094
-57.719
-57.317
-56.888
-56.43
-55.945
-55.431
-54.888
-54.315
-53.712
-53.078
-52.413
-51.717
-50.988
-50.228
-49.437
-48.614
-47.762
-46.88
-45.971
-45.037
-44.077
-43.096
-42.094
-41.074
-40.038
-38.99
-37.931
-36.865
-35.795
-34.725
-33.659
-32.598
-31.549
-30.514
-29.496
-28.501
-27.532
-26.593
-25.689
-24.823
-23.999
-23.223
-22.498
-21.828
-21.217
-20.666
-20.179
-19.759
-19.405
-19.12
-18.904
-18.756
-18.677
-18.665
-18.719
-18.837
-19.015
-19.251
-19.54
-19.877
-20.257
-20.676
-21.126
-21.602
-22.097
-22.605
-23.119
-23.632
-24.136
-24.623
-25.087
-25.518
-25.909
-26.251
-26.536
-26.758
-26.908
-26.979
-26.967
-26.864
-26.665
-26.366
-25.963
-25.453
-24.833
-24.102
-23.259
-22.305
-21.242
-20.073
-18.802
-17.434
-15.977
-14.437
-12.821
-11.138
-9.398
-7.609
-5.783
-3.928
-2.055
-0.175
1.699
3.556
5.384
7.17
8.903
10.57
12.157
13.652
15.045
16.327
17.49
18.526
19.428
20.186
20.795
21.251
21.552
21.696
21.685
21.522
21.216
20.785
20.249
19.628
18.938
18.191
17.401
16.58
15.743
14.907
14.082
13.277
12.501
11.766
11.076
10.432
9.818
9.195
8.513
7.729
6.8
5.703
4.423
2.939
1.219
-0.767
-3.051
-5.657
-8.595
-11.901
-15.645
-19.805
-24.252
-28.742
-32.905
-36.41
-39.062
-40.615
-40.763
-39.468
-36.919
-33.581
-30.281
-27.638
-25.877
-25.3
-26.232
-28.499
-31.567
-34.395
-35.333
-33.145
-27.143
-16.449
-0.102
22.26
50.563
83.988
120.85
159.774
199.517
238.065
272.852
301.317
320.793
329.02
324.206
304.95
271.475
225.31
168.726
102.314
23.457
-68.988
-171.897
-275.65
-362.886
-418.171
-435.358
-417.044
-376.031
-327.908
-281.202
-239.435
-201.676
-164.191
-127.255
-94.073
-67.453
-49.652
-40.785
-38.742
-41.061
-45.862
-51.275
-55.323
-56.895
-55.493
-51.033
-44.207
-35.951
-26.914
-17.996
-10.336
-4.534
-0.869
0.602
0.243
-1.542
-4.455
-8.06
-11.833
-15.44
-18.647
-21.298
-23.41
-24.983
-25.999
-26.497
-26.53
-26.136
-25.363
-24.254
-22.836
-21.161
-19.294
-17.293
-15.233
-13.183
-11.206
-9.37
-7.72
-6.282
-5.07
-4.085
-3.32
-2.763
-2.393
-2.177
-2.084
-2.081
-2.135
-2.219
-2.296
-2.333
-2.293
-2.142
-1.851
-1.403
-0.778
0.036
1.05
2.271
3.704
5.348
7.204
9.275
11.566
14.079
16.817
19.778
22.962
26.37
30.001
33.854
37.925
42.212
46.713
51.425
56.35
61.484
66.817
72.338
78.033
83.886
89.877
95.984
102.177
108.429
114.714
121.013
127.307
133.575
139.793
145.933
151.969
157.882
163.663
169.301
174.791
180.13
185.327
190.405
195.393
200.311
205.165
209.95
214.657
219.283
223.827
228.285
232.649
236.895
240.993
244.919
248.636
252.098
255.236
257.959
260.17
261.793
262.769
263.061
262.634
261.447
259.459
256.643
252.986
248.489
243.157
236.99
230.006
222.248
213.789
204.736
195.202
185.283
175.064
164.623
154.041
143.415
132.838
122.4
112.176
102.232
92.641
83.484
74.824
66.697
59.117
52.065
45.52
39.47
33.897
28.786
24.108
19.819
15.874
12.226
8.831
5.654
2.649
-0.235
-3.041
-5.797
-8.516
-11.194
-13.83
-16.426
-18.979
-21.483
-23.926
-26.287
-28.543
-30.669
-32.647
-34.462
-36.099
-37.543
-38.784
-39.819
-40.652
-41.296
-41.764
-42.065
-42.214
-42.223
-42.113
-41.903
-41.616
-41.275
-40.899
-40.505
-40.107
-39.719
-39.35
-39.009
-38.699
-38.423
-38.182
-37.978
-37.813
-37.688
-37.604
-37.56
-37.553
-37.583
-37.647
-37.745
-37.875
-38.037
-38.23
-38.453
-38.707
-38.992
-39.309
-39.656
-40.033
-40.438
-40.871
-41.33
-41.815
-42.324
-42.858
-43.416
-44
-44.609
-45.245
-45.909
-46.602
-47.325
-48.081
-48.869
-49.693
-50.553
-51.451
-52.388
-53.366
-54.386
-55.449
-56.555
-57.705
-58.899
-60.137
-61.419
-62.743
-64.109
-65.515
-66.961
-68.444
-69.962
-71.514
-73.096
-74.704
-76.336
-77.988
-79.654
-81.33
-83.011
-84.691
-86.365
-88.027
-89.671
-91.291
-92.881
-94.436
-95.951
-97.419
-98.835
-100.194
-101.492
-102.724
-103.886
-104.975
-105.987
-106.921
-107.775
-108.546
-109.234
-109.838
-110.358
-110.795
-111.15
-111.424
-111.619
-111.738
-111.784
-111.762
-111.676
-111.531
-111.332
-111.085
-110.796
-110.471
-110.116
-109.737
-109.342
-108.936
-108.526
-108.118
-107.719
-107.335
-106.971
-106.633
-106.326
-106.054
-105.821
-105.631
-105.487
-105.391
-105.346
-105.353
-105.414
-105.528
-105.697
-105.92
-106.195
-106.522
-106.897
-107.318
-107.782
-108.285
-108.823
-109.392
-109.987
-110.603
-111.236
-111.88
-112.531
-113.183
-113.83
-114.468
-115.092
-115.697
-116.277
-116.829
-117.349
-117.832
-118.276
-118.677
-119.033
-119.342
-119.602
-119.81
-119.966
-120.069
-120.119
-120.115
-120.058
-119.948
-119.787
-119.576
-119.317
-119.011
-118.662
-118.27
-117.839
-117.371
-116.868
-116.333
-115.769
-115.177
-114.561
-113.923
-113.265
-112.588
-111.896
-111.189
-110.469
-109.738
-108.995
-108.243
-107.481
-106.709
-105.928
-105.138
-104.339
-103.53
-102.711
-101.881
-101.039
-100.186
-99.319
-98.437
-97.541
-96.629
-95.7
-94.753
-93.788
-92.804
-91.801
-90.778
-89.735
-88.674
-87.593
-86.493
-85.375
-84.241
-83.091
-81.926
-80.748
-79.558
-78.359
-77.153
-75.942
-74.728
-73.514
-72.301
-71.093
-69.891
-68.698
-67.516
-66.347
-65.193
-64.055
-62.936
-61.837
-60.759
-59.703
-58.671
-57.661
-56.676
-55.715
-54.778
-53.864
-52.974
-52.105
-51.257
-50.429
-49.619
-48.825
-48.047
-47.28
-46.525
-45.778
-45.036
-44.298
-43.561
-42.823
-42.081
-41.333
-40.576
-39.81
-39.032
-38.242
-37.437
-36.617
-35.782
-34.931
-34.063
-33.18
-32.28
-31.366
-30.437
-29.494
-28.54
-27.574
-26.6
-25.617
-24.629
-23.637
-22.643
-21.648
-20.655
-19.664
-18.679
-17.701
-16.732
-15.773
-14.826
-13.893
-12.974
-12.071
-11.183
-10.312
-9.457
-8.617
-7.792
-6.981
-6.182
-5.393
-4.613
-3.84
-3.071
-2.302
-1.531
-0.753
0.035
0.835
1.652
2.489
3.349
4.234
5.147
6.089
7.064
8.074
9.122
10.211
11.34
12.507
13.712
14.954
16.23
17.538
18.874
20.231
21.61
23.008
24.423
25.856
27.296
28.735
30.164
31.574
32.963
34.33
35.668
36.971
38.239
39.466
40.655
41.808
42.911
43.948
44.909
45.779
46.561
47.258
47.867
48.39
48.821
49.148
49.371
49.489
49.491
49.374
49.127
48.747
48.261
47.7
47.091
46.462
45.829
45.199
44.593
44.03
43.529
43.122
42.824
42.653
42.639
42.802
43.152
43.684
44.352
45.094
45.867
46.635
47.363
48.011
48.519
48.825
48.865
48.599
47.963
46.852
45.238
43.182
40.848
38.568
36.666
35.357
34.922
35.686
37.658
40.66
44.258
47.552
49.89
50.973
50.334
47.679
43.343
37.948
32.716
29.673
30.28
35.579
46.977
65.432
91.183
124.068
162.791
205.022
248.88
292.377
332.564
366.633
392.011
406.143
407.502
395.229
367.941
325.934
272.363
210.443
143.533
71.906
-8.375
-97.297
-190.23
-275.156
-334.413
-358.952
-346.909
-305.455
-250.314
-189.577
-129.584
-76.019
-28.476
7.978
30.567
43.276
48.105
49.836
51.782
52.007
50.156
46.664
42.681
40.96
42.763
47.859
55.409
64.068
72.741
80.453
86.384
90.137
91.564
90.854
88.455
84.787
80.325
75.635
71.113
67.01
63.514
60.644
58.387
56.762
55.726
55.213
55.187
55.6
56.404
57.571
59.037
60.724
62.562
64.468
66.365
68.188
69.863
71.343
72.599
73.613
74.381
74.909
75.202
75.279
75.172
74.908
74.521
74.043
73.504
72.94
72.385
71.873
71.437
71.102
70.886
70.804
70.867
71.084
71.461
72.003
72.707
73.575
74.61
75.814
77.192
78.746
80.476
82.384
84.47
86.736
89.181
91.807
94.611
97.589
100.741
104.063
107.556
111.216
115.034
118.999
123.099
127.318
131.639
136.042
140.5
144.988
149.481
153.956
158.396
162.788
167.113
171.356
175.498
179.525
183.435
187.226
190.895
194.439
197.859
201.157
204.354
207.461
210.486
213.429
216.278
219.013
221.616
224.067
226.337
228.39
230.175
231.635
232.724
233.399
233.618
233.335
232.491
231.033
228.926
226.144
222.68
218.54
213.729
208.26
202.168
195.499
188.316
180.695
172.696
164.378
155.799
147.02
138.116
129.155
120.191
111.271
102.43
93.7
85.113
76.697
68.46
60.404
52.52
44.791
37.213
29.786
22.511
15.388
8.414
1.586
-5.087
-11.594
-17.924
-24.065
-30.008
-35.747
-41.265
-46.543
-51.564
-56.308
-60.76
-64.915
-68.764
-72.306
-75.54
-78.467
-81.094
-83.431
-85.489
-87.278
-88.807
-90.086
-91.127
-91.946
-92.556
-92.973
-93.21
-93.281
-93.201
-92.983
-92.639
-92.183
-91.626
-90.979
-90.253
-89.46
-88.611
-87.717
-86.789
-85.837
-84.871
-83.902
-82.937
-81.984
-81.052
-80.146
-79.272
-78.434
-77.637
-76.884
-76.178
-75.52
-74.913
-74.357
-73.853
-73.402
-73.002
-72.653
-72.354
-72.104
-71.902
-71.745
-71.632
-71.561
-71.529
-71.534
-71.574
-71.647
-71.75
-71.88
-72.034
-72.21
-72.404
-72.612
-72.831
-73.058
-73.289
-73.521
-73.75
-73.974
-74.189
-74.393
-74.583
-74.757
-74.912
-75.046
-75.157
-75.242
-75.3
-75.329
-75.327
-75.293
-75.226
-75.123
-74.985
-74.808
-74.592
-74.336
-74.038
-73.696
-73.309
-72.876
-72.396
-71.869
-71.293
-70.67
-69.999
-69.28
-68.515
-67.705
-66.851
-65.955
-65.018
-64.041
-63.028
-61.98
-60.899
-59.789
-58.651
-57.488
-56.303
-55.099
-53.878
-52.643
-51.398
-50.144
-48.885
-47.624
-46.366
-45.113
-43.87
-42.64
-41.428
-40.238
-39.073
-37.939
-36.837
-35.772
-34.746
-33.764
-32.826
-31.937
-31.097
-30.308
-29.572
-28.89
-28.263
-27.691
-27.175
-26.714
-26.308
-25.957
-25.661
-25.418
-25.229
-25.091
-25.004
-24.966
-24.975
-25.03
-25.128
-25.267
-25.443
-25.654
-25.897
-26.167
-26.461
-26.775
-27.106
-27.45
-27.803
-28.162
-28.522
-28.881
-29.236
-29.582
-29.919
-30.242
-30.551
-30.842
-31.114
-31.365
-31.594
-31.799
-31.979
-32.133
-32.26
-32.359
-32.43
-32.471
-32.483
-32.465
-32.418
-32.34
-32.233
-32.097
-31.932
-31.74
-31.52
-31.274
-31.003
-30.708
-30.391
-30.052
-29.693
-29.315
-28.918
-28.503
-28.072
-27.625
-27.161
-26.683
-26.189
-25.679
-25.155
-24.615
-24.06
-23.489
-22.901
-22.297
-21.677
-21.039
-20.384
-19.712
-19.023
-18.316
-17.593
-16.853
-16.096
-15.324
-14.536
-13.732
-12.914
-12.082
-11.236
-10.378
-9.508
-8.628
-7.738
-6.84
-5.936
-5.027
-4.116
-3.204
-2.294
-1.388
-0.488
0.403
1.282
2.146
2.992
3.817
4.618
5.392
6.136
6.849
7.527
8.169
8.772
9.335
9.857
10.335
10.769
11.157
11.499
11.793
12.039
12.237
12.387
12.489
12.544
12.553
12.517
12.436
12.313
12.148
11.944
11.702
11.425
11.115
10.777
10.412
10.025
9.619
9.197
8.765
8.324
7.878
7.432
6.987
6.547
6.115
5.695
5.289
4.899
4.529
4.182
3.858
3.561
3.291
3.051
2.841
2.662
2.514
2.398
2.314
2.262
2.242
2.256
2.303
2.384
2.497
2.642
2.818
3.021
3.248
3.496
3.76
4.038
4.327
4.624
4.928
5.236
5.548
5.865
6.184
6.503
6.815
7.117
7.409
7.692
7.97
8.251
8.538
8.839
9.165
9.522
9.912
10.335
10.781
11.24
11.71
12.191
12.689
13.211
13.755
14.317
14.894
15.476
16.055
16.613
17.125
17.57
17.942
18.243
18.488
18.697
18.881
19.046
19.195
19.329
19.455
19.582
19.717
19.874
20.07
20.337
20.724
21.273
22.009
22.947
24.083
25.407
26.91
28.584
30.415
32.388
34.484
36.681
38.955
41.278
43.61
45.888
48.035
49.972
51.619
52.915
53.81
54.255
54.214
53.661
52.578
50.957
48.796
46.094
42.857
39.099
34.848
30.151
25.071
19.68
14.064
8.304
2.48
-3.325
-9.043
-14.621
-20.011
-25.18
-30.097
-34.73
-39.056
-43.055
-46.718
-50.046
-53.047
-55.742
-58.169
-60.374
-62.42
-64.382
-66.317
-68.276
-70.294
-72.381
-74.556
-76.85
-79.291
-81.913
-84.746
-87.786
-91.055
-94.601
-98.358
-102.191
-105.867
-109.005
-111.308
-112.581
-112.566
-111.088
-108.239
-104.241
-99.575
-95.02
-91.1
-88.19
-86.778
-86.994
-88.488
-90.648
-92.382
-92.297
-89.363
-82.523
-70.491
-52.539
-28.583
0.9
34.668
71.103
108.537
144.642
176.47
201.114
215.881
218.504
207.101
181.084
141.668
91.06
32.399
-33.963
-111.274
-199.763
-295.98
-388.915
-459.76
-496.495
-495.636
-463.516
-417.271
-369.514
-326.153
-288.109
-250.378
-210.878
-171.599
-135.842
-107.566
-88.067
-76.295
-70.629
-68.963
-69.799
-71.8
-73.024
-72.294
-69.23
-63.776
-56.488
-48.106
-39.095
-30.187
-22.45
-16.463
-12.434
-10.386
-9.95
-10.743
-12.52
-14.867
-17.276
-19.424
-21.088
-22.138
-22.596
-22.464
-21.724
-20.42
-18.616
-16.364
-13.725
-10.74
-7.439
-3.875
-0.111
3.789
7.758
11.738
15.676
19.519
23.22
26.747
30.085
33.233
36.198
38.996
41.641
44.158
46.574
48.918
51.217
53.495
55.776
58.083
60.439
62.867
65.391
68.028
70.79
73.682
76.71
79.875
83.178
86.616
90.182
93.87
97.676
101.596
105.629
109.77
114.015
118.357
122.792
127.314
131.919
136.604
141.361
146.184
151.068
156.009
161.004
166.05
171.14
176.264
181.41
186.564
191.712
196.836
201.915
206.922
211.835
216.634
221.303
225.828
230.19
234.371
238.351
242.114
245.649
248.952
252.019
254.852
257.459
259.858
262.069
264.121
266.03
267.801
269.442
270.949
272.325
273.574
274.695
275.679
276.52
277.197
277.684
277.95
277.939
277.586
276.828
275.597
273.841
271.524
268.606
265.058
260.852
255.961
250.361
244.038
236.97
229.153
220.607
211.367
201.497
191.082
180.202
168.943
157.386
145.608
133.692
121.721
109.771
97.93
86.289
74.95
64.02
53.586
43.71
34.431
25.766
17.714
10.273
3.435
-2.818
-8.508
-13.665
-18.318
-22.5
-26.257
-29.649
-32.76
-35.673
-38.455
-41.157
-43.811
-46.44
-49.06
-51.684
-54.313
-56.942
-59.564
-62.171
-64.759
-67.318
-69.831
-72.268
-74.584
-76.742
-78.714
-80.482
-82.037
-83.375
-84.494
-85.396
-86.095
-86.607
-86.945
-87.122
-87.146
-87.03
-86.789
-86.445
-86.021
-85.539
-85.013
-84.456
-83.878
-83.287
-82.69
-82.09
-81.486
-80.877
-80.263
-79.646
-79.029
-78.413
-77.798
-77.184
-76.57
-75.956
-75.342
-74.729
-74.117
-73.506
-72.898
-72.293
-71.694
-71.103
-70.519
-69.945
-69.38
-68.824
-68.278
-67.743
-67.219
-66.705
-66.204
-65.715
-65.24
-64.778
-64.332
-63.902
-63.488
-63.092
-62.715
-62.357
-62.02
-61.704
-61.41
-61.141
-60.895
-60.676
-60.483
-60.317
-60.181
-60.075
-60
-59.957
-59.948
-59.973
-60.033
-60.128
-60.26
-60.427
-60.63
-60.869
-61.143
-61.452
-61.795
-62.172
-62.581
-63.02
-63.49
-63.988
-64.512
-65.062
-65.636
-66.231
-66.848
-67.482
-68.134
-68.801
-69.481
-70.171
-70.87
-71.575
-72.282
-72.99
-73.696
-74.397
-75.089
-75.771
-76.44
-77.093
-77.729
-78.344
-78.937
-79.506
-80.05
-80.566
-81.054
-81.513
-81.94
-82.337
-82.701
-83.032
-83.33
-83.593
-83.822
-84.015
-84.173
-84.294
-84.377
-84.424
-84.433
-84.405
-84.34
-84.238
-84.099
-83.925
-83.717
-83.474
-83.199
-82.892
-82.555
-82.188
-81.793
-81.371
-80.923
-80.45
-79.953
-79.433
-78.891
-78.328
-77.745
-77.141
-76.518
-75.876
-75.217
-74.541
-73.848
-73.141
-72.419
-71.684
-70.938
-70.181
-69.415
-68.641
-67.859
-67.071
-66.278
-65.48
-64.679
-63.875
-63.069
-62.261
-61.451
-60.642
-59.831
-59.021
-58.211
-57.402
-56.594
-55.788
-54.984
-54.182
-53.384
-52.591
-51.802
-51.018
-50.24
-49.469
-48.705
-47.949
-47.201
-46.46
-45.729
-45.006
-44.292
-43.587
-42.891
-42.204
-41.526
-40.858
-40.199
-39.549
-38.909
-38.279
-37.659
-37.049
-36.45
-35.862
-35.285
-34.72
-34.166
-33.624
-33.094
-32.575
-32.068
-31.571
-31.085
-30.609
-30.143
-29.686
-29.237
-28.795
-28.36
-27.931
-27.506
-27.086
-26.668
-26.253
-25.839
-25.425
-25.011
-24.595
-24.177
-23.756
-23.331
-22.9
-22.463
-22.017
-21.563
-21.099
-20.623
-20.136
-19.636
-19.123
-18.596
-18.055
-17.5
-16.931
-16.348
-15.751
-15.142
-14.52
-13.887
-13.244
-12.593
-11.934
-11.269
-10.6
-9.928
-9.256
-8.584
-7.914
-7.248
-6.588
-5.935
-5.292
-4.66
-4.041
-3.437
-2.851
-2.284
-1.737
-1.212
-0.711
-0.233
0.219
0.646
1.047
1.423
1.774
2.1
2.402
2.683
2.943
3.184
3.41
3.622
3.824
4.018
4.207
4.395
4.584
4.778
4.98
5.194
5.423
5.671
5.942
6.238
6.564
6.923
7.318
7.752
8.229
8.75
9.317
9.934
10.6
11.317
12.085
12.905
13.774
14.693
15.659
16.67
17.721
18.81
19.931
21.081
22.252
23.441
24.64
25.842
27.04
28.228
29.398
30.539
31.644
32.704
33.708
34.647
35.512
36.293
36.981
37.568
38.048
38.412
38.656
38.771
38.752
38.594
38.291
37.84
37.238
36.484
35.577
34.524
33.327
31.993
30.527
28.931
27.208
25.364
23.405
21.34
19.182
16.943
14.645
12.317
9.986
7.681
5.425
3.237
1.136
-0.857
-2.721
-4.428
-5.952
-7.276
-8.382
-9.259
-9.906
-10.335
-10.583
-10.71
-10.776
-10.835
-10.93
-11.101
-11.405
-11.901
-12.648
-13.713
-15.135
-16.975
-19.321
-22.169
-25.425
-28.906
-32.291
-35.273
-37.647
-39.117
-39.318
-38.152
-35.717
-32.363
-28.754
-25.338
-22.263
-19.861
-18.576
-18.403
-18.964
-19.356
-18.129
-14.237
-7.061
4.35
21.196
44.208
73.541
108.49
147.458
188.945
231.47
272.659
309.312
338.226
356.335
361.124
350.872
323.853
279.811
221.024
150.53
71.969
-13.501
-107.55
-207.775
-308.592
-398.777
-462.662
-493.539
-490.433
-458.568
-410.528
-352.109
-288.339
-225.546
-165.432
-114.175
-75.321
-45.884
-24.527
-7.255
8.25
19.307
25.137
25.644
21.849
17.313
14.44
13.954
15.937
19.701
24.569
30.191
36.019
41.258
45.127
47.254
47.695
46.724
44.755
42.173
39.324
36.632
34.542
33.306
33.003
33.618
35.039
37.163
39.919
43.192
46.844
50.762
54.843
58.991
63.136
67.185
71.03
74.597
77.829
80.69
83.17
85.268
86.988
88.354
89.399
90.158
90.67
90.972
91.099
91.096
91.007
90.877
90.755
90.677
90.672
90.764
90.968
91.297
91.76
92.363
93.107
93.997
95.04
96.242
97.611
99.152
100.871
102.772
104.859
107.133
109.599
112.261
115.126
118.201
121.489
124.992
128.706
132.63
136.753
141.066
145.554
150.194
154.968
159.857
164.849
169.932
175.091
180.306
185.556
190.817
196.074
201.319
206.543
211.739
216.906
222.047
227.181
232.329
237.503
242.701
247.912
253.114
258.293
263.436
268.528
273.55
278.471
283.25
287.849
292.223
296.316
300.057
303.354
306.112
308.255
309.731
310.502
310.546
309.839
308.358
306.093
303.041
299.216
294.639
289.332
283.327
276.675
269.447
261.745
253.676
245.328
236.774
228.072
219.266
210.403
201.524
192.66
183.831
175.049
166.319
157.645
149.035
140.481
131.961
123.43
114.833
106.131
97.3
88.325
79.204
69.936
60.526
50.998
41.394
31.768
22.189
12.726
3.44
-5.604
-14.331
-22.658
-30.49
-37.751
-44.379
-50.318
-55.518
-59.93
-63.514
-66.26
-68.191
-69.351
-69.805
-69.633
-68.91
-67.715
-66.145
-64.291
-62.247
-60.096
-57.904
-55.739
-53.678
-51.802
-50.184
-48.872
-47.879
-47.201
-46.82
-46.694
-46.784
-47.035
-47.38
-47.764
-48.142
-48.48
-48.756
-48.948
-49.02
-48.929
-48.643
-48.143
-47.426
-46.499
-45.373
-44.075
-42.639
-41.112
-39.549
-37.992
-36.47
-35.001
-33.599
-32.274
-31.045
-29.929
-28.937
-28.077
-27.352
-26.766
-26.323
-26.017
-25.838
-25.767
-25.782
-25.867
-26.014
-26.216
-26.471
-26.775
-27.127
-27.523
-27.968
-28.461
-29
-29.582
-30.203
-30.861
-31.554
-32.285
-33.053
-33.86
-34.704
-35.583
-36.496
-37.441
-38.416
-39.416
-40.436
-41.474
-42.527
-43.593
-44.671
-45.76
-46.859
-47.966
-49.082
-50.206
-51.336
-52.471
-53.611
-54.752
-55.895
-57.038
-58.179
-59.317
-60.451
-61.581
-62.706
-63.824
-64.935
-66.039
-67.134
-68.221
-69.298
-70.366
-71.424
-72.473
-73.512
-74.543
-75.564
-76.577
-77.582
-78.578
-79.565
-80.544
-81.514
-82.474
-83.424
-84.363
-85.292
-86.21
-87.116
-88.012
-88.896
-89.769
-90.631
-91.482
-92.322
-93.151
-93.97
-94.778
-95.576
-96.365
-97.144
-97.914
-98.675
-99.427
-100.17
-100.905
-101.63
-102.346
-103.053
-103.749
-104.434
-105.109
-105.771
-106.421
-107.058
-107.681
-108.29
-108.884
-109.462
-110.023
-110.566
-111.09
-111.595
-112.079
-112.542
-112.982
-113.399
-113.792
-114.16
-114.501
-114.815
-115.1
-115.355
-115.579
-115.772
-115.931
-116.057
-116.148
-116.204
-116.225
-116.209
-116.158
-116.071
-115.949
-115.792
-115.602
-115.38
-115.126
-114.843
-114.533
-114.198
-113.84
-113.462
-113.065
-112.653
-112.228
-111.794
-111.351
-110.905
-110.456
-110.009
-109.565
-109.128
-108.7
-108.284
-107.884
-107.501
-107.139
-106.801
-106.488
-106.202
-105.947
-105.723
-105.532
-105.375
-105.252
-105.163
-105.109
-105.088
-105.098
-105.139
-105.207
-105.3
-105.414
-105.546
-105.692
-105.848
-106.009
-106.17
-106.327
-106.474
-106.608
-106.722
-106.812
-106.873
-106.899
-106.886
-106.829
-106.722
-106.561
-106.34
-106.054
-105.699
-105.271
-104.766
-104.181
-103.512
-102.757
-101.915
-100.985
-99.965
-98.857
-97.662
-96.381
-95.017
-93.574
-92.056
-90.468
-88.816
-87.106
-85.345
-83.54
-81.699
-79.829
-77.939
-76.036
-74.129
-72.226
-70.336
-68.467
-66.63
-64.834
-63.089
-61.407
-59.797
-58.269
-56.834
-55.5
-54.274
-53.164
-52.174
-51.309
-50.573
-49.97
-49.502
-49.171
-48.974
-48.911
-48.978
-49.17
-49.478
-49.894
-50.407
-51.008
-51.691
-52.451
-53.286
-54.193
-55.165
-56.195
-57.274
-58.391
-59.533
-60.681
-61.814
-62.911
-63.953
-64.924
-65.806
-66.578
-67.211
-67.677
-67.947
-67.997
-67.812
-67.39
-66.733
-65.852
-64.767
-63.498
-62.091
-60.61
-59.116
-57.68
-56.385
-55.296
-54.523
-54.221
-54.438
-55.152
-56.242
-57.448
-58.568
-59.505
-60.044
-59.901
-59.02
-57.512
-55.828
-54.79
-54.858
-56.144
-58.823
-63.045
-68.679
-75.271
-81.621
-85.887
-86.818
-83.707
-75.945
-62.988
-44.273
-19.671
9.962
42.83
77.242
112.045
146.296
178.465
206.314
226.989
237.184
235.797
223.043
199.831
168.912
130.378
82.893
24.949
-46.921
-132.372
-228.283
-329.613
-425.797
-506.782
-563.176
-586.063
-574.569
-531.187
-460.972
-375.532
-284.703
-199.922
-134.922
-94.383
-78.443
-80.875
-87.777
-91.739
-90.501
-85.141
-81.804
-82.33
-84.616
-86.752
-86.086
-81.889
-75.483
-67.985
-60.321
-53.501
-48.325
-45.19
-44.233
-45.249
-47.735
-51.26
-55.472
-59.898
-64.04
-67.565
-70.27
-72.108
-73.159
-73.474
-73.082
-72.049
-70.457
-68.396
-65.951
-63.192
-60.177
-56.97
-53.664
-50.35
-47.124
-44.069
-41.242
-38.674
-36.389
-34.394
-32.686
-31.255
-30.081
-29.128
-28.367
-27.762
-27.28
-26.89
-26.551
-26.224
-25.868
-25.444
-24.926
-24.293
-23.533
-22.632
-21.585
-20.386
-19.032
-17.525
-15.862
-14.039
-12.051
-9.893
-7.561
-5.053
-2.365
0.506
3.562
6.805
10.242
13.877
17.718
21.77
26.032
30.501
35.171
40.034
45.075
50.278
55.618
61.071
66.618
72.239
77.922
83.651
89.405
95.159
100.888
106.57
112.198
117.762
123.255
128.681
134.047
139.375
144.701
150.048
155.427
160.837
166.267
171.709
177.16
182.615
188.065
193.495
198.874
204.168
209.339
214.328
219.059
223.436
227.339
230.665
233.343
235.306
236.508
236.9
236.429
235.053
232.741
229.471
225.228
220.016
213.845
206.76
198.834
190.17
180.9
171.146
161.012
150.596
139.993
129.302
118.625
108.069
97.72
87.664
77.994
68.781
60.089
51.956
44.389
37.373
30.87
24.841
19.253
14.075
9.268
4.788
0.586
-3.396
-7.202
-10.876
-14.473
-18.032
-21.587
-25.162
-28.759
-32.37
-35.979
-39.563
-43.101
-46.576
-49.96
-53.226
-56.344
-59.274
-61.991
-64.472
-66.69
-68.628
-70.273
-71.615
-72.656
-73.405
-73.871
-74.065
-74.003
-73.698
-73.166
-72.427
-71.5
-70.411
-69.178
-67.818
-66.346
-64.777
-63.122
-61.392
-59.596
-57.736
-55.819
-53.852
-51.838
-49.785
-47.698
-45.58
-43.437
-41.271
-39.086
-36.888
-34.682
-32.47
-30.26
-28.055
-25.86
-23.68
-21.52
-19.384
-17.274
-15.192
-13.141
-11.121
-9.135
-7.182
-5.263
-3.379
-1.53
0.284
2.063
3.806
5.515
7.19
8.831
10.439
12.015
13.56
15.076
16.562
18.021
19.454
20.863
22.25
23.616
24.964
26.293
27.607
28.907
30.193
31.466
32.728
33.978
35.218
36.447
37.666
38.875
40.073
41.259
42.434
43.595
44.742
45.874
46.989
48.084
49.159
50.211
51.237
52.236
53.203
54.136
55.029
55.879
56.681
57.428
58.115
58.738
59.291
59.769
60.167
60.48
60.705
60.838
60.874
60.811
60.641
60.36
59.964
59.446
58.803
58.028
57.117
56.066
54.874
53.539
52.058
50.431
48.65
46.717
44.634
42.403
40.031
37.524
34.89
32.142
29.297
26.372
23.384
20.346
17.259
14.133
10.974
7.791
4.596
1.39
-1.834
-5.077
-8.338
-11.621
-14.924
-18.257
-21.644
-25.095
-28.617
-32.209
-35.854
-39.54
-43.26
-46.998
-50.737
-54.454
-58.105
-61.659
-65.089
-68.361
-71.448
-74.309
-76.89
-79.157
-81.085
-82.655
-83.859
-84.691
-85.135
-85.187
-84.846
-84.11
-82.998
-81.529
-79.716
-77.595
-75.2
-72.57
-69.762
-66.818
-63.77
-60.661
-57.528
-54.408
-51.353
-48.417
-45.658
-43.157
-40.981
-39.191
-37.839
-36.957
-36.57
-36.708
-37.388
-38.628
-40.447
-42.848
-45.831
-49.403
-53.548
-58.231
-63.401
-68.97
-74.841
-80.931
-87.16
-93.462
-99.769
-106.001
-112.078
-117.925
-123.471
-128.653
-133.409
-137.664
-141.364
-144.472
-146.975
-148.888
-150.239
-151.052
-151.353
-151.172
-150.546
-149.527
-148.176
-146.558
-144.735
-142.767
-140.716
-138.648
-136.617
-134.668
-132.83
-131.12
-129.549
-128.122
-126.831
-125.665
-124.603
-123.606
-122.631
-121.613
-120.486
-119.193
-117.689
-115.936
-113.915
-111.612
-109.019
-106.145
-103.006
-99.629
-96.062
-92.36
-88.584
-84.813
-81.143
-77.688
-74.579
-71.922
-69.801
-68.286
-67.425
-67.259
-67.823
-69.127
-71.162
-73.909
-77.33
-81.38
-86.009
-91.147
-96.71
-102.601
-108.718
-114.989
-121.361
-127.794
-134.253
-140.695
-147.103
-153.485
-159.87
-166.304
-172.832
-179.482
-186.312
-193.42
-200.822
-208.456
-216.161
-223.64
-230.626
-236.949
-242.366
-246.58
-249.539
-251.404
-252.59
-253.814
-255.616
-258.192
-261.835
-266.907
-273.21
-280.095
-286.434
-290.513
-290.957
-286.966
-277.529
-261.468
-238.421
-208.696
-173.389
-134.573
-94.181
-53.788
-15.439
18.065
44.262
61.444
67.364
60.704
41.814
9.776
-32.276
-78.166
-127.546
-179.124
-236.177
-307.705
-390.676
-477.41
-554.958
-602.758
-612.631
-585.966
-529.605
-457.951
-381.242
-304.896
-235.176
-177.834
-136.768
-114.266
-106.912
-105.727
-104.78
-100.947
-94.159
-88.414
-84.561
-81.233
-77.315
-70.735
-61.103
-49.679
-37.416
-25.416
-14.923
-6.465
-0.217
3.747
5.779
6.343
5.781
4.557
3.228
2.135
1.503
1.48
2.025
3.108
4.746
6.899
9.532
12.633
16.165
20.098
24.411
29.055
33.979
39.13
44.439
49.854
55.333
60.835
66.362
71.922
77.506
83.116
88.732
94.329
99.908
105.478
111.049
116.643
122.273
127.951
133.703
139.55
145.504
151.57
157.731
163.967
170.276
176.661
183.137
189.733
196.458
203.322
210.336
217.507
224.841
232.341
240.001
247.813
255.776
263.895
272.181
280.647
289.289
298.097
307.059
316.15
325.348
334.631
343.963
353.317
362.668
371.996
381.288
390.528
399.696
408.77
417.73
426.559
435.25
443.8
452.206
460.478
468.63
476.683
484.668
492.603
500.494
508.343
516.143
523.885
531.568
539.175
546.682
554.057
561.261
568.245
574.958
581.33
587.277
592.715
597.554
601.721
605.168
607.851
609.736
610.796
611.01
610.374
608.903
606.617
603.546
599.735
595.236
590.129
584.512
578.481
572.132
565.547
558.79
551.925
545.008
538.087
531.205
524.394
517.674
511.065
504.588
498.251
492.055
485.986
480.017
474.124
468.293
462.512
456.784
451.111
445.494
439.944
434.479
429.114
423.869
418.76
413.795
408.992
404.366
399.938
395.732
391.765
388.05
384.593
381.399
378.468
375.799
373.386
371.216
369.279
367.563
366.058
364.755
363.641
362.704
361.93
361.305
360.814
360.446
360.188
360.027
359.951
359.948
360.008
360.121
360.277
360.466
360.678
360.904
361.133
361.358
361.571
361.764
361.931
362.065
362.162
362.217
362.226
362.186
362.095
361.95
361.75
361.494
361.18
360.809
360.38
359.895
359.352
358.752
358.097
357.385
356.619
355.797
354.922
353.993
353.011
351.977
350.892
349.755
348.568
347.33
346.041
344.703
343.313
341.873
340.381
338.838
337.242
335.594
333.892
332.135
330.323
328.454
326.528
324.544
322.5
320.395
318.229
316
313.709
311.353
308.933
306.448
303.898
301.285
298.606
295.864
293.059
290.192
287.263
284.276
281.23
278.128
274.971
271.763
268.506
265.202
261.854
258.465
255.038
251.575
248.081
244.558
241.009
237.439
233.849
230.243
226.626
223.001
219.37
215.738
212.108
208.484
204.868
201.264
197.675
194.104
190.554
187.028
183.526
180.053
176.609
173.197
169.818
166.472
163.162
159.887
156.647
153.444
150.277
147.145
144.048
140.986
137.956
134.959
131.993
129.056
126.147
123.264
120.405
117.569
114.752
111.954
109.172
106.403
103.646
100.898
98.156
95.419
92.685
89.951
87.217
84.479
81.738
78.991
76.238
73.477
70.708
67.93
65.144
62.348
59.544
56.731
53.91
51.082
48.248
45.411
42.572
39.732
36.894
34.059
31.23
28.408
25.596
22.796
20.01
17.241
14.489
11.759
9.051
6.368
3.712
1.083
-1.517
-4.086
-6.625
-9.131
-11.605
-14.046
-16.452
-18.823
-21.159
-23.458
-25.721
-27.946
-30.133
-32.284
-34.398
-36.477
-38.522
-40.536
-42.519
-44.473
-46.4
-48.301
-50.175
-52.023
-53.842
-55.634
-57.398
-59.136
-60.848
-62.532
-64.189
-65.822
-67.43
-69.013
-70.566
-72.085
-73.566
-75.012
-76.425
-77.814
-79.183
-80.537
-81.882
-83.229
-84.583
-85.946
-87.314
-88.672
-90.014
-91.339
-92.649
-93.955
-95.261
-96.562
-97.854
-99.13
-100.383
-101.609
-102.798
-103.925
-104.984
-105.979
-106.927
-107.866
-108.824
-109.815
-110.851
-111.936
-113.08
-114.304
-115.624
-117.049
-118.594
-120.271
-122.102
-124.126
-126.362
-128.811
-131.458
-134.265
-137.206
-140.268
-143.435
-146.69
-150.011
-153.367
-156.731
-160.086
-163.412
-166.684
-169.869
-172.921
-175.803
-178.501
-181.008
-183.326
-185.456
-187.391
-189.138
-190.724
-192.186
-193.56
-194.882
-196.171
-197.458
-198.786
-200.205
-201.787
-203.603
-205.697
-208.143
-211.028
-214.346
-218.062
-222.038
-225.958
-229.556
-232.627
-234.87
-236.123
-236.523
-236.194
-235.529
-235.449
-236.497
-239.001
-243.67
-249.689
-255.753
-262.11
-267.609
-272.51
-278.047
-280.461
-276.804
-263.981
-238.422
-204.108
-165.701
-127.116
-92.889
-62.512
-35.906
-15.21
-2.427
-0.71
-11.153
-30.75
-55.664
-82.834
-111.317
-146.904
-196.616
-265.576
-356.541
-460.184
-562.587
-648.494
-700.329
-712.938
-687.687
-631.377
-561.331
-490.774
-431.05
-390.623
-366.878
-354.985
-348.259
-339.835
-328.85
-317.255
-308.404
-304.68
-305.478
-308.342
-310.069
-309.003
-305.028
-298.564
-290.6
-281.925
-273.082
-265.003
-258.467
-253.767
-251.02
-250.08
-250.594
-252.285
-254.811
-257.681
-260.541
-263.198
-265.516
-267.48
-269.087
-270.278
-271.048
-271.437
-271.464
-271.158
-270.544
-269.626
-268.437
-267.033
-265.468
-263.803
-262.092
-260.37
-258.679
-257.061
-255.553
-254.196
-253.015
-252.018
-251.207
-250.573
-250.102
-249.779
-249.582
-249.478
-249.44
-249.439
-249.45
-249.456
-249.436
-249.368
-249.231
-249.001
-248.658
-248.193
-247.594
-246.855
-245.971
-244.936
-243.749
-242.409
-240.92
-239.278
-237.482
-235.529
-233.415
-231.14
-228.704
-226.109
-223.352
-220.433
-217.345
-214.09
-210.671
-207.092
-203.361
-199.486
-195.477
-191.351
-187.129
-182.831
-178.475
-174.076
-169.642
-165.187
-160.73
-156.291
-151.894
-147.555
-143.281
-139.078
-134.95
-130.893
-126.902
-122.955
-119.015
-115.06
-111.079
-107.072
-103.06
-99.05
-95.047
-91.058
-87.088
-83.154
-79.288
-75.52
-71.871
-68.388
-65.128
-62.175
-59.639
-57.606
-56.135
-55.266
-55.02
-55.425
-56.516
-58.316
-60.836
-64.084
-68.057
-72.764
-78.22
-84.405
-91.269
-98.729
-106.663
-114.978
-123.602
-132.471
-141.53
-150.712
-159.94
-169.154
-178.301
-187.317
-196.129
-204.642
-212.748
-220.381
-227.505
-234.114
-240.229
-245.857
-250.992
-255.637
-259.798
-263.492
-266.742
-269.556
-271.945
-273.937
-275.584
-276.965
-278.162
-279.23
-280.204
-281.102
-281.932
-282.708
-283.442
-284.136
-284.785
-285.382
-285.925
-286.421
-286.872
-287.269
-287.587
-287.784
-287.825
-287.689
-287.364
-286.844
-286.128
-285.214
-284.109
-282.828
-281.387
-279.803
-278.085
-276.242
-274.284
-272.226
-270.09
-267.898
-265.672
-263.426
-261.173
-258.925
-256.69
-254.473
-252.278
-250.106
-247.957
-245.836
-243.742
-241.673
-239.627
-237.603
-235.6
-233.614
-231.642
-229.676
-227.716
-225.768
-223.835
-221.925
-220.036
-218.163
-216.299
-214.442
-212.589
-210.751
-208.93
-207.124
-205.339
-203.58
-201.857
-200.183
-198.55
-196.936
-195.327
-193.709
-192.079
-190.447
-188.815
-187.185
-185.562
-183.938
-182.31
-180.673
-179.006
-177.286
-175.493
-173.603
-171.626
-169.588
-167.5
-165.377
-163.223
-161.031
-158.801
-156.526
-154.187
-151.778
-149.304
-146.777
-144.239
-141.727
-139.272
-136.912
-134.66
-132.517
-130.491
-128.584
-126.798
-125.148
-123.646
-122.321
-121.219
-120.365
-119.77
-119.431
-119.317
-119.409
-119.685
-120.102
-120.632
-121.254
-121.944
-122.698
-123.514
-124.376
-125.267
-126.153
-126.985
-127.74
-128.399
-128.947
-129.39
-129.718
-129.934
-130.072
-130.158
-130.212
-130.25
-130.268
-130.257
-130.225
-130.178
-130.127
-130.09
-130.068
-130.066
-130.097
-130.164
-130.279
-130.441
-130.624
-130.807
-130.974
-131.116
-131.233
-131.327
-131.389
-131.417
-131.413
-131.378
-131.317
-131.231
-131.112
-130.956
-130.756
-130.514
-130.24
-129.945
-129.633
-129.309
-128.975
-128.633
-128.292
-127.953
-127.612
-127.268
-126.918
-126.562
-126.203
-125.844
-125.486
-125.13
-124.775
-124.421
-124.068
-123.716
-123.365
-123.014
-122.661
-122.306
-121.95
-121.594
-121.24
-120.886
-120.533
-120.182
-119.832
-119.485
-119.14
-118.796
-118.454
-118.113
-117.772
-117.434
-117.096
-116.76
-116.426
-116.093
-115.762
-115.433
-115.105
-114.779
-114.454
-114.128
-113.802
-113.474
-113.144
-112.808
-112.467
-112.118
-111.76
-111.389
-111.004
-110.601
-110.178
-109.731
-109.258
-108.753
-108.214
-107.637
-107.019
-106.355
-105.642
-104.877
-104.055
-103.174
-102.23
-101.219
-100.139
-98.985
-97.756
-96.447
-95.057
-93.584
-92.024
-90.377
-88.642
-86.817
-84.902
-82.897
-80.803
-78.621
-76.354
-74.004
-71.575
-69.07
-66.494
-63.853
-61.153
-58.399
-55.6
-52.762
-49.893
-47.003
-44.1
-41.195
-38.297
-35.416
-32.563
-29.748
-26.979
-24.267
-21.619
-19.043
-16.548
-14.142
-11.834
-9.633
-7.545
-5.577
-3.736
-2.027
-0.451
0.992
2.303
3.484
4.533
5.446
6.223
6.863
7.369
7.743
7.991
8.124
8.157
8.111
8.009
7.868
7.703
7.523
7.339
7.172
7.044
6.982
7.008
7.138
7.392
7.788
8.331
9.005
9.782
10.614
11.466
12.325
13.165
13.954
14.654
15.196
15.516
15.565
15.267
14.541
13.381
11.843
10.086
8.4
7.023
6.152
6.04
6.871
8.622
11.056
13.675
15.854
17.229
17.631
16.83
14.742
11.684
8.439
6.304
6.635
10.313
17.888
30.004
47.313
69.977
97.49
128.609
161.869
196.179
230.582
263.581
292.991
316.773
333.295
341.163
339.197
325.868
299.405
260.439
212.239
157.422
98.786
36.13
-34.634
-112.276
-191.909
-263.843
-311.728
-326.052
-303.653
-248.831
-177.507
-104.61
-43.754
-4.208
15.662
20.665
18.747
17.65
19.392
23.47
27.349
28.959
28.742
28.455
30.411
35.655
43.753
53.63
63.728
72.853
80.49
86.244
89.932
91.637
91.512
89.881
87.251
84.143
80.907
77.79
74.974
72.552
70.614
69.236
68.422
68.135
68.358
69.077
70.275
71.94
74.027
76.465
79.192
82.14
85.243
88.442
91.657
94.811
97.845
100.717
103.4
105.883
108.161
110.229
112.103
113.809
115.372
116.823
118.191
119.499
120.778
122.056
123.366
124.741
126.205
127.778
129.475
131.307
133.286
135.42
137.713
140.168
142.786
145.573
148.532
151.672
154.997
158.511
162.219
166.121
170.223
174.527
179.042
183.771
188.718
193.882
199.259
204.845
210.631
216.606
222.754
229.053
235.482
242.025
248.665
255.39
262.183
269.025
275.892
282.758
289.606
296.424
303.203
309.935
316.619
323.259
329.872
336.484
343.106
349.743
356.384
363.011
369.608
376.159
382.653
389.073
395.392
401.576
407.586
413.38
418.906
424.098
428.866
433.112
436.752
439.721
441.975
443.49
444.243
444.22
443.408
441.802
439.411
436.255
432.354
427.74
422.454
416.552
410.131
403.302
396.174
388.839
381.368
373.814
366.229
358.658
351.142
343.716
336.412
329.253
322.266
315.48
308.921
302.606
296.519
290.623
284.877
279.248
273.721
268.294
262.966
257.739
252.616
247.607
242.725
237.984
233.388
228.934
224.614
220.418
216.358
212.458
208.75
205.259
202.001
198.982
196.209
193.687
191.415
189.389
187.595
186.02
184.658
183.505
182.564
181.838
181.318
180.993
180.841
180.847
180.995
181.273
181.664
182.154
182.73
183.381
184.104
184.893
185.739
186.633
187.563
188.517
189.488
190.467
191.447
192.423
193.388
194.337
195.266
196.173
197.053
197.902
198.714
199.487
200.216
200.898
201.531
202.114
202.645
203.123
203.547
203.92
204.24
204.508
204.726
204.894
205.013
205.084
205.109
205.089
205.026
204.922
204.779
204.6
204.386
204.14
203.863
203.559
203.228
202.874
202.497
202.101
201.686
201.255
200.809
200.351
199.88
199.399
198.908
198.409
197.901
197.384
196.859
196.325
195.782
195.229
194.667
194.094
193.51
192.914
192.307
191.687
191.054
190.407
189.746
189.07
188.378
187.671
186.948
186.207
185.449
184.674
183.879
183.065
182.23
181.375
180.497
179.598
178.675
177.73
176.761
175.769
174.754
173.716
172.655
171.573
170.47
169.346
168.201
167.036
165.853
164.65
163.429
162.19
160.934
159.66
158.369
157.061
155.736
154.394
153.036
151.66
150.268
148.859
147.435
145.995
144.541
143.073
141.593
140.1
138.596
137.081
135.556
134.021
132.478
130.926
129.366
127.799
126.225
124.645
123.059
121.467
119.871
118.27
116.665
115.056
113.444
111.829
110.213
108.595
106.977
105.359
103.742
102.126
100.512
98.9
97.289
95.68
94.072
92.465
90.858
89.251
87.645
86.037
84.428
82.818
81.205
79.589
77.97
76.347
74.72
73.088
71.451
69.809
68.163
66.512
64.857
63.197
61.534
59.867
58.198
56.526
54.852
53.178
51.504
49.831
48.162
46.497
44.838
43.188
41.548
39.921
38.308
36.713
35.136
33.581
32.049
30.544
29.068
27.623
26.212
24.837
23.502
22.207
20.955
19.748
18.588
17.476
16.414
15.404
14.446
13.543
12.696
11.905
11.171
10.495
9.877
9.318
8.817
8.374
7.989
7.662
7.391
7.177
7.019
6.916
6.867
6.872
6.93
7.039
7.197
7.404
7.658
7.958
8.301
8.686
9.112
9.577
10.078
10.615
11.184
11.785
12.413
13.068
13.747
14.446
15.164
15.898
16.646
17.404
18.171
18.943
19.717
20.49
21.26
22.023
22.774
23.511
24.231
24.929
25.602
26.246
26.859
27.435
27.973
28.469
28.918
29.319
29.668
29.961
30.197
30.373
30.486
30.535
30.518
30.433
30.279
30.055
29.76
29.395
28.957
28.449
27.87
27.221
26.503
25.718
24.867
23.953
22.979
21.948
20.862
19.726
18.542
17.316
16.051
14.752
13.423
12.07
10.696
9.307
7.908
6.504
5.099
3.7
2.309
0.933
-0.424
-1.758
-3.065
-4.341
-5.581
-6.783
-7.944
-9.06
-10.128
-11.148
-12.116
-13.032
-13.894
-14.703
-15.458
-16.16
-16.81
-17.409
-17.96
-18.464
-18.926
-19.348
-19.735
-20.089
-20.418
-20.725
-21.015
-21.296
-21.572
-21.851
-22.14
-22.447
-22.778
-23.142
-23.546
-23.998
-24.504
-25.069
-25.7
-26.401
-27.178
-28.035
-28.976
-30.007
-31.13
-32.351
-33.67
-35.09
-36.609
-38.222
-39.925
-41.713
-43.585
-45.539
-47.574
-49.684
-51.865
-54.113
-56.419
-58.773
-61.152
-63.532
-65.886
-68.195
-70.443
-72.618
-74.706
-76.689
-78.547
-80.258
-81.803
-83.169
-84.339
-85.298
-86.041
-86.581
-86.956
-87.224
-87.433
-87.623
-87.814
-88.029
-88.307
-88.703
-89.28
-90.103
-91.203
-92.617
-94.41
-96.571
-99.007
-101.545
-103.873
-105.667
-106.713
-106.837
-105.892
-104.005
-101.44
-98.513
-95.777
-93.684
-92.485
-92.367
-93.282
-94.642
-95.597
-95.34
-92.866
-87.387
-78.252
-64.691
-46.351
-23.59
2.806
31.99
62.962
94.718
125.778
153.909
177.072
193.413
201.137
198.484
183.242
154.433
113.721
63.55
6.385
-58.205
-134.362
-222.562
-318.031
-408.874
-477.176
-511.628
-509.457
-475.779
-423.259
-362.322
-299.624
-241.898
-194.754
-161.862
-145.795
-143.589
-146.714
-149.64
-149.23
-145.291
-142.18
-141.296
-141.394
-141.334
-138.946
-133.575
-126.429
-118.553
-110.893
-104.448
-99.721
-96.888
-96.064
-97.046
-99.404
-102.748
-106.671
-110.678
-114.407
-117.656
-120.27
-122.221
-123.531
-124.185
-124.205
-123.648
-122.556
-120.974
-118.961
-116.563
-113.846
-110.915
-107.865
-104.793
-101.795
-98.932
-96.25
-93.792
-91.585
-89.65
-88.004
-86.649
-85.582
-84.81
-84.322
-84.092
-84.081
-84.22
-84.449
-84.718
-84.979
-85.203
-85.362
-85.422
-85.36
-85.16
-84.806
-84.284
-83.566
-82.604
-81.369
-79.851
-78.059
-76.025
-73.768
-71.3
-68.633
-65.783
-62.777
-59.64
-56.382
-53.004
-49.504
-45.893
-42.199
-38.469
-34.729
-30.994
-27.269
-23.551
-19.859
-16.207
-12.597
-9.022
-5.459
-1.896
1.661
5.197
8.702
12.173
15.619
19.05
22.461
25.851
29.224
32.589
35.981
39.422
42.921
46.481
50.099
53.773
57.509
61.303
65.14
69.009
72.888
76.763
80.629
84.464
88.23
91.886
95.366
98.597
101.513
104.029
106.054
107.51
108.327
108.453
107.858
106.508
104.375
101.443
97.688
93.104
87.696
81.464
74.433
66.658
58.211
49.196
39.744
29.967
19.973
9.868
-0.269
-10.357
-20.324
-30.118
-39.685
-48.969
-57.913
-66.446
-74.513
-82.095
-89.193
-95.832
-102.067
-107.941
-113.507
-118.828
-123.946
-128.896
-133.701
-138.362
-142.884
-147.281
-151.575
-155.797
-159.973
-164.108
-168.201
-172.241
-176.201
-180.056
-183.767
-187.285
-190.573
-193.611
-196.384
-198.894
-201.147
-203.139
-204.867
-206.329
-207.524
-208.453
-209.123
-209.538
-209.708
-209.65
-209.388
-208.953
-208.37
-207.658
-206.832
-205.904
-204.883
-203.778
-202.599
-201.351
-200.04
-198.675
-197.263
-195.815
-194.34
-192.842
-191.326
-189.793
-188.246
-186.687
-185.118
-183.543
-181.962
-180.379
-178.797
-177.219
-175.648
-174.086
-172.534
-170.992
-169.459
-167.936
-166.422
-164.917
-163.419
-161.929
-160.446
-158.97
-157.502
-156.041
-154.587
-153.141
-151.703
-150.273
-148.851
-147.437
-146.031
-144.634
-143.246
-141.869
-140.502
-139.148
-137.807
-136.481
-135.171
-133.88
-132.608
-131.357
-130.131
-128.929
-127.756
-126.613
-125.503
-124.429
-123.392
-122.396
-121.444
-120.536
-119.676
-118.865
-118.105
-117.397
-116.742
-116.143
-115.598
-115.11
-114.678
-114.301
-113.981
-113.716
-113.506
-113.35
-113.246
-113.192
-113.188
-113.231
-113.318
-113.447
-113.615
-113.819
-114.055
-114.319
-114.608
-114.917
-115.242
-115.578
-115.921
-116.266
-116.607
-116.94
-117.261
-117.563
-117.842
-118.094
-118.314
-118.497
-118.64
-118.738
-118.788
-118.788
-118.733
-118.622
-118.453
-118.224
-117.933
-117.579
-117.162
-116.682
-116.139
-115.534
-114.868
-114.142
-113.358
-112.52
-111.628
-110.687
-109.699
-108.668
-107.598
-106.493
-105.357
-104.196
-103.013
-101.814
-100.604
-99.389
-98.172
-96.959
-95.754
-94.563
-93.388
-92.235
-91.106
-90.006
-88.936
-87.9
-86.9
-85.936
-85.011
-84.124
-83.277
-82.468
-81.697
-80.964
-80.266
-79.603
-78.971
-78.368
-77.793
-77.242
-76.711
-76.196
-75.695
-75.203
-74.715
-74.226
-73.732
-73.229
-72.71
-72.173
-71.611
-71.021
-70.398
-69.74
-69.041
-68.3
-67.513
-66.678
-65.794
-64.858
-63.872
-62.834
-61.744
-60.605
-59.417
-58.182
-56.902
-55.58
-54.219
-52.822
-51.392
-49.934
-48.453
-46.952
-45.438
-43.915
-42.39
-40.869
-39.358
-37.864
-36.393
-34.953
-33.549
-32.188
-30.877
-29.622
-28.43
-27.305
-26.253
-25.279
-24.387
-23.58
-22.864
-22.238
-21.707
-21.271
-20.93
-20.687
-20.54
-20.488
-20.532
-20.669
-20.898
-21.216
-21.62
-22.107
-22.672
-23.312
-24.02
-24.791
-25.619
-26.498
-27.421
-28.379
-29.367
-30.376
-31.399
-32.427
-33.453
-34.47
-35.468
-36.442
-37.383
-38.284
-39.14
-39.945
-40.692
-41.377
-41.995
-42.542
-43.014
-43.407
-43.718
-43.945
-44.085
-44.136
-44.097
-43.967
-43.746
-43.435
-43.034
-42.545
-41.971
-41.314
-40.576
-39.763
-38.878
-37.925
-36.909
-35.835
-34.708
-33.535
-32.321
-31.072
-29.794
-28.493
-27.173
-25.842
-24.504
-23.163
-21.826
-20.497
-19.181
-17.882
-16.606
-15.357
-14.14
-12.958
-11.817
-10.719
-9.668
-8.666
-7.716
-6.82
-5.978
-5.193
-4.466
-3.796
-3.185
-2.632
-2.138
-1.701
-1.321
-0.995
-0.724
-0.503
-0.333
-0.21
-0.133
-0.1
-0.109
-0.157
-0.243
-0.364
-0.517
-0.698
-0.904
-1.131
-1.374
-1.628
-1.888
-2.149
-2.409
-2.662
-2.905
-3.134
-3.346
-3.539
-3.709
-3.852
-3.964
-4.039
-4.074
-4.063
-4.002
-3.886
-3.71
-3.473
-3.17
-2.802
-2.367
-1.86
-1.278
-0.616
0.13
0.959
1.872
2.865
3.933
5.067
6.251
7.469
8.709
9.964
11.23
12.508
13.799
15.102
16.422
17.754
19.096
20.446
21.797
23.146
24.499
25.863
27.258
28.708
30.224
31.81
33.462
35.16
36.882
38.599
40.27
41.863
43.353
44.713
45.927
46.982
47.854
48.519
48.943
49.081
48.904
48.391
47.531
46.334
44.819
43.016
40.981
38.768
36.423
33.996
31.527
29.045
26.589
24.197
21.91
19.785
17.873
16.216
14.854
13.81
13.093
12.701
12.598
12.731
13.045
13.477
13.98
14.529
15.082
15.588
15.996
16.229
16.213
15.902
15.217
14.065
12.461
10.495
8.369
6.409
4.875
3.946
3.876
4.881
6.933
9.802
12.985
15.831
18
19.338
19.594
18.632
16.687
14.444
13.118
13.965
17.761
25.093
36.744
53.504
75.825
103.428
135.178
169.875
206.486
243.592
279.117
310.463
334.7
349.222
352.185
341.39
315.574
276.049
224.969
165.056
97.801
20.75
-67.52
-162.976
-256.506
-332.836
-377.028
-383.393
-352.894
-293.379
-218.906
-139.897
-67.209
-12.572
21.091
33.054
28.073
19.038
12.543
11.514
16.087
20.181
21.579
21.631
21.473
23.74
29.376
37.045
45.602
54.016
61.243
66.806
70.557
72.378
72.451
71.207
69.026
66.296
63.498
60.969
58.891
57.404
56.516
56.185
56.406
57.142
58.318
59.88
61.774
63.937
66.327
68.89
71.547
74.226
76.847
79.331
81.624
83.689
85.499
87.041
88.314
89.315
90.059
90.567
90.865
90.985
90.956
90.809
90.579
90.303
90.021
89.773
89.59
89.493
89.503
89.634
89.9
90.315
90.888
91.623
92.528
93.612
94.882
96.349
98.019
99.897
101.985
104.285
106.799
109.529
112.476
115.639
119.017
122.608
126.413
130.429
134.654
139.083
143.71
148.527
153.528
158.703
164.038
169.522
175.141
180.881
186.734
192.683
198.713
204.804
210.934
217.081
223.221
229.327
235.363
241.297
247.098
252.735
258.189
263.441
268.469
273.253
277.774
282.018
285.981
289.663
293.056
296.156
298.962
301.483
303.744
305.767
307.569
309.163
310.551
311.734
312.716
313.492
314.046
314.349
314.361
314.038
313.353
312.278
310.779
308.81
306.309
303.218
299.492
295.085
289.959
284.078
277.416
269.967
261.758
252.835
243.26
233.105
222.433
211.311
199.822
188.058
176.129
164.144
152.209
140.438
128.958
117.893
107.353
97.418
88.136
79.535
71.63
64.422
57.911
52.086
46.919
42.378
38.422
35.004
32.07
29.548
27.346
25.37
23.547
21.817
20.144
18.502
16.868
15.232
13.591
11.947
10.312
8.694
7.096
5.53
4.015
2.579
1.266
0.115
-0.85
-1.612
-2.163
-2.501
-2.625
-2.543
-2.271
-1.828
-1.231
-0.494
0.37
1.349
2.423
3.57
4.764
5.983
7.211
8.434
9.639
10.819
11.963
13.069
14.135
15.163
16.149
17.091
17.985
18.827
19.618
20.355
21.039
21.668
22.243
22.762
23.224
23.63
23.98
24.273
24.508
24.685
24.803
24.865
24.87
24.82
24.718
24.564
24.361
24.113
23.822
23.494
23.131
22.736
22.313
21.865
21.396
20.909
20.407
19.892
19.368
18.839
18.312
17.798
17.299
16.817
16.349
15.895
15.456
15.031
14.619
14.214
13.813
13.423
13.052
12.713
12.413
12.151
11.922
11.718
11.542
11.399
11.301
11.251
11.253
11.313
11.447
11.674
12.001
12.417
12.896
13.409
13.941
14.483
15.033
15.588
16.133
16.653
17.133
17.565
17.939
18.236
18.425
18.472
18.359
18.093
17.704
17.218
16.647
16
15.278
14.492
13.654
12.775
11.86
10.906
9.921
8.917
7.922
6.964
6.058
5.197
4.361
3.534
2.707
1.878
1.04
0.187
-0.69
-1.593
-2.515
-3.447
-4.387
-5.338
-6.31
-7.314
-8.352
-9.417
-10.501
-11.593
-12.69
-13.785
-14.874
-15.949
-17.004
-18.039
-19.058
-20.064
-21.06
-22.044
-23.014
-23.969
-24.908
-25.833
-26.745
-27.644
-28.532
-29.409
-30.278
-31.143
-32.004
-32.862
-33.717
-34.569
-35.418
-36.265
-37.112
-37.958
-38.804
-39.651
-40.501
-41.355
-42.214
-43.078
-43.949
-44.825
-45.707
-46.594
-47.486
-48.381
-49.278
-50.177
-51.075
-51.972
-52.866
-53.754
-54.637
-55.51
-56.373
-57.222
-58.056
-58.871
-59.666
-60.437
-61.182
-61.899
-62.584
-63.235
-63.849
-64.425
-64.959
-65.449
-65.893
-66.288
-66.632
-66.924
-67.163
-67.347
-67.475
-67.548
-67.566
-67.528
-67.437
-67.292
-67.094
-66.845
-66.548
-66.202
-65.812
-65.379
-64.907
-64.399
-63.858
-63.288
-62.693
-62.077
-61.444
-60.798
-60.144
-59.487
-58.83
-58.179
-57.538
-56.912
-56.306
-55.725
-55.173
-54.653
-54.168
-53.723
-53.319
-52.959
-52.645
-52.379
-52.162
-51.996
-51.882
-51.822
-51.815
-51.862
-51.963
-52.117
-52.324
-52.582
-52.89
-53.247
-53.649
-54.097
-54.587
-55.116
-55.682
-56.282
-56.912
-57.568
-58.244
-58.936
-59.639
-60.347
-61.056
-61.761
-62.459
-63.145
-63.818
-64.474
-65.111
-65.728
-66.322
-66.887
-67.422
-67.921
-68.382
-68.799
-69.17
-69.489
-69.754
-69.965
-70.121
-70.22
-70.259
-70.234
-70.139
-69.977
-69.747
-69.451
-69.094
-68.68
-68.222
-67.736
-67.24
-66.749
-66.273
-65.813
-65.37
-64.948
-64.545
-64.164
-63.8
-63.439
-63.074
-62.698
-62.299
-61.867
-61.373
-60.775
-60.037
-59.125
-58.011
-56.691
-55.158
-53.411
-51.466
-49.34
-47.065
-44.689
-42.247
-39.772
-37.31
-34.903
-32.614
-30.533
-28.739
-27.31
-26.325
-25.833
-25.876
-26.484
-27.659
-29.39
-31.654
-34.399
-37.579
-41.145
-45.028
-49.156
-53.435
-57.742
-61.954
-65.938
-69.552
-72.679
-75.218
-77.077
-78.199
-78.538
-78.059
-76.756
-74.637
-71.721
-68.054
-63.688
-58.703
-53.208
-47.324
-41.198
-34.989
-28.847
-22.911
-17.309
-12.145
-7.52
-3.527
-0.233
2.316
4.086
5.063
5.246
4.654
3.335
1.356
-1.188
-4.189
-7.539
-11.123
-14.831
-18.572
-22.256
-25.8
-29.143
-32.231
-35.024
-37.487
-39.589
-41.313
-42.662
-43.653
-44.322
-44.716
-44.889
-44.912
-44.859
-44.79
-44.759
-44.814
-44.976
-45.275
-45.733
-46.37
-47.224
-48.323
-49.675
-51.28
-53.107
-55.126
-57.305
-59.6
-61.962
-64.346
-66.674
-68.89
-70.982
-72.869
-74.422
-75.432
-75.548
-74.456
-71.959
-67.924
-62.292
-55.195
-46.877
-37.78
-28.652
-20.241
-13.164
-7.781
-4.097
-1.717
-0.036
1.729
4.738
10.369
20.034
34.787
55.026
80.376
110.03
142.987
177.615
211.431
241.411
264.52
277.968
279.683
267.969
240.883
198.605
144.112
80.378
10.898
-63.871
-147.68
-239.201
-332.031
-414.212
-468.609
-486.276
-467.807
-419.945
-354.66
-280.93
-204.152
-131.352
-70.836
-29.278
-10.27
-10.067
-18.256
-27.229
-32.836
-34.884
-37.608
-41.876
-46.139
-48.931
-47.766
-42.131
-33.368
-22.589
-11.177
-0.656
8.258
15.237
20.1
23.133
24.74
25.212
24.972
24.547
24.229
24.17
24.436
24.915
25.513
26.184
26.858
27.475
28.027
28.524
28.988
29.457
29.949
30.478
31.053
31.673
32.335
33.035
33.781
34.598
35.528
36.624
37.916
39.411
41.102
42.968
44.991
47.161
49.451
51.82
54.242
56.701
59.196
61.737
64.314
66.895
69.445
71.921
74.303
76.591
78.793
80.917
82.973
84.971
86.941
88.928
90.958
93.039
95.165
97.326
99.539
101.842
104.272
106.856
109.609
112.532
115.631
118.921
122.41
126.099
129.974
134.017
138.223
142.611
147.203
152.003
156.991
162.119
167.346
172.643
177.98
183.324
188.637
193.872
198.993
203.979
208.812
213.465
217.903
222.071
225.924
229.445
232.637
235.518
238.111
240.43
242.506
244.392
246.135
247.778
249.348
250.852
252.303
253.729
255.155
256.605
258.082
259.551
260.971
262.293
263.448
264.368
264.949
265.05
264.551
263.351
261.359
258.508
254.715
249.88
243.93
236.823
228.548
219.141
208.641
197.1
184.601
171.253
157.206
142.656
127.78
112.735
97.683
82.784
68.218
54.191
40.87
28.377
16.807
6.217
-3.343
-11.832
-19.248
-25.623
-31.018
-35.533
-39.253
-42.25
-44.617
-46.457
-47.896
-49.087
-50.146
-51.155
-52.184
-53.28
-54.487
-55.845
-57.366
-59.037
-60.836
-62.728
-64.687
-66.695
-68.72
-70.717
-72.632
-74.399
-75.971
-77.325
-78.44
-79.307
-79.92
-80.276
-80.384
-80.271
-79.96
-79.473
-78.829
-78.044
-77.138
-76.139
-75.076
-73.98
-72.875
-71.776
-70.697
-69.651
-68.644
-67.684
-66.772
-65.905
-65.081
-64.302
-63.569
-62.884
-62.249
-61.662
-61.123
-60.63
-60.184
-59.784
-59.43
-59.121
-58.858
-58.64
-58.468
-58.344
-58.266
-58.235
-58.248
-58.304
-58.4
-58.534
-58.704
-58.907
-59.14
-59.401
-59.687
-59.997
-60.329
-60.679
-61.046
-61.427
-61.819
-62.221
-62.628
-63.038
-63.449
-63.857
-64.259
-64.652
-65.034
-65.401
-65.752
-66.083
-66.393
-66.679
-66.939
-67.171
-67.375
-67.549
-67.692
-67.805
-67.886
-67.936
-67.956
-67.945
-67.906
-67.837
-67.741
-67.619
-67.47
-67.296
-67.099
-66.88
-66.641
-66.384
-66.11
-65.823
-65.524
-65.217
-64.904
-64.587
-64.271
-63.958
-63.652
-63.355
-63.07
-62.802
-62.553
-62.326
-62.125
-61.951
-61.807
-61.696
-61.619
-61.577
-61.573
-61.606
-61.68
-61.793
-61.948
-62.144
-62.382
-62.664
-62.987
-63.354
-63.763
-64.213
-64.705
-65.237
-65.807
-66.415
-67.058
-67.735
-68.444
-69.181
-69.944
-70.729
-71.535
-72.357
-73.191
-74.034
-74.882
-75.731
-76.579
-77.42
-78.253
-79.073
-79.877
-80.663
-81.427
-82.167
-82.88
-83.563
-84.214
-84.829
-85.408
-85.947
-86.445
-86.9
-87.311
-87.677
-87.996
-88.268
-88.493
-88.67
-88.8
-88.884
-88.921
-88.915
-88.865
-88.775
-88.646
-88.482
-88.284
-88.056
-87.8
-87.52
-87.218
-86.898
-86.562
-86.213
-85.853
-85.486
-85.115
-84.741
-84.368
-83.999
-83.635
-83.28
-82.935
-82.602
-82.283
-81.979
-81.691
-81.419
-81.164
-80.928
-80.708
-80.506
-80.322
-80.153
-80
-79.861
-79.734
-79.616
-79.506
-79.403
-79.302
-79.201
-79.098
-78.99
-78.874
-78.748
-78.608
-78.452
-78.277
-78.081
-77.863
-77.621
-77.352
-77.052
-76.722
-76.358
-75.961
-75.53
-75.062
-74.558
-74.018
-73.448
-72.852
-72.23
-71.579
-70.894
-70.169
-69.404
-68.596
-67.741
-66.835
-65.876
-64.871
-63.832
-62.773
-61.699
-60.606
-59.49
-58.346
-57.177
-55.999
-54.831
-53.692
-52.604
-51.596
-50.696
-49.935
-49.326
-48.852
-48.485
-48.192
-47.95
-47.752
-47.603
-47.498
-47.432
-47.387
-47.334
-47.248
-47.082
-46.773
-46.259
-45.479
-44.407
-43.062
-41.497
-39.773
-37.955
-36.09
-34.21
-32.347
-30.525
-28.766
-27.098
-25.559
-24.212
-23.15
-22.467
-22.252
-22.563
-23.404
-24.741
-26.508
-28.615
-30.967
-33.485
-36.103
-38.776
-41.479
-44.184
-46.851
-49.418
-51.798
-53.892
-55.601
-56.843
-57.557
-57.721
-57.36
-56.543
-55.372
-53.945
-52.338
-50.603
-48.772
-46.874
-44.95
-43.047
-41.216
-39.521
-38.036
-36.847
-36.049
-35.717
-35.881
-36.522
-37.578
-38.975
-40.658
-42.58
-44.698
-46.968
-49.332
-51.746
-54.178
-56.594
-58.94
-61.14
-63.086
-64.67
-65.816
-66.475
-66.637
-66.303
-65.476
-64.173
-62.42
-60.261
-57.752
-54.935
-51.835
-48.479
-44.909
-41.193
-37.437
-33.762
-30.282
-27.104
-24.317
-21.992
-20.192
-18.953
-18.299
-18.234
-18.744
-19.825
-21.475
-23.692
-26.47
-29.771
-33.517
-37.599
-41.893
-46.269
-50.611
-54.817
-58.793
-62.464
-65.764
-68.638
-71.047
-72.958
-74.335
-75.141
-75.341
-74.933
-73.972
-72.553
-70.801
-68.833
-66.749
-64.644
-62.624
-60.794
-59.253
-58.093
-57.372
-57.16
-57.572
-58.648
-60.349
-62.532
-64.877
-67.046
-68.791
-69.788
-69.662
-68.333
-65.879
-62.607
-59.278
-56.438
-54.352
-53.491
-54.193
-56.212
-59.045
-61.62
-62.094
-59.127
-51.709
-38.408
-18.209
9.224
43.81
84.329
128.526
174.473
220.023
262.083
297.692
324.126
338.816
340.27
327.669
299.933
257.6
203.895
142.447
76.965
8.296
-66.963
-149.677
-236.253
-316.11
-372.597
-395.005
-381.293
-339.653
-287.19
-236.513
-193.751
-159.424
-128.182
-97.786
-69.712
-45.878
-28.977
-19.477
-15.31
-14.184
-14.058
-13.096
-10.062
-4.386
4.202
15.482
28.611
42.617
56.568
69.395
80.325
89.036
95.358
99.405
101.524
102.051
101.404
100.071
98.369
96.489
94.561
92.616
90.69
88.859
87.165
85.639
84.345
83.327
82.632
82.312
82.378
82.816
83.602
84.702
86.095
87.77
89.727
91.96
94.454
97.18
100.106
103.192
106.392
109.669
112.984
116.291
119.564
122.784
125.942
129.034
132.05
134.971
137.773
140.445
142.977
145.372
147.636
149.771
151.786
153.692
155.504
157.255
158.968
160.67
162.39
164.161
166.024
168.019
170.179
172.525
175.078
177.856
180.876
184.164
187.74
191.626
195.844
200.406
205.318
210.575
216.152
222.008
228.09
234.348
240.737
247.217
253.743
260.269
266.749
273.139
279.398
285.482
291.333
296.899
302.133
307.005
311.512
315.67
319.509
323.061
326.361
329.449
332.385
335.225
338.013
340.784
343.555
346.346
349.19
352.12
355.155
358.298
361.516
364.75
367.936
370.991
373.817
376.3
378.296
379.655
380.253
379.983
378.759
376.5
373.113
368.505
362.606
355.374
346.806
336.937
325.816
313.519
300.156
285.861
270.814
255.207
239.217
223.008
206.74
190.57
174.674
159.245
144.449
130.432
117.306
105.145
94.007
83.923
74.893
66.885
59.839
53.67
48.304
43.668
39.683
36.268
33.314
30.695
28.293
25.997
23.717
21.391
18.967
16.406
13.695
10.833
7.838
4.737
1.557
-1.682
-4.955
-8.235
-11.48
-14.636
-17.65
-20.47
-23.056
-25.383
-27.434
-29.199
-30.68
-31.886
-32.834
-33.547
-34.044
-34.342
-34.459
-34.412
-34.222
-33.916
-33.521
-33.065
-32.572
-32.058
-31.538
-31.023
-30.52
-30.034
-29.566
-29.113
-28.677
-28.259
-27.862
-27.488
-27.14
-26.818
-26.525
-26.258
-26.02
-25.812
-25.633
-25.487
-25.373
-25.293
-25.25
-25.245
-25.281
-25.357
-25.473
-25.629
-25.822
-26.052
-26.316
-26.613
-26.939
-27.295
-27.676
-28.082
-28.511
-28.962
-29.432
-29.919
-30.422
-30.94
-31.469
-32.009
-32.558
-33.113
-33.674
-34.237
-34.801
-35.366
-35.928
-36.488
-37.042
-37.591
-38.132
-38.666
-39.19
-39.705
-40.21
-40.705
-41.189
-41.665
-42.131
-42.59
-43.042
-43.488
-43.93
-44.367
-44.801
-45.234
-45.666
-46.098
-46.531
-46.967
-47.407
-47.852
-48.304
-48.762
-49.229
-49.706
-50.192
-50.691
-51.202
-51.726
-52.265
-52.819
-53.389
-53.977
-54.582
-55.206
-55.848
-56.509
-57.19
-57.888
-58.605
-59.34
-60.091
-60.859
-61.642
-62.439
-63.25
-64.072
-64.906
-65.749
-66.601
-67.459
-68.324
-69.192
-70.064
-70.938
-71.813
-72.687
-73.56
-74.43
-75.296
-76.157
-77.012
-77.86
-78.698
-79.526
-80.343
-81.147
-81.937
-82.712
-83.471
-84.214
-84.94
-85.648
-86.337
-87.008
-87.659
-88.291
-88.904
-89.497
-90.07
-90.625
-91.16
-91.676
-92.173
-92.652
-93.112
-93.554
-93.977
-94.383
-94.77
-95.14
-95.492
-95.826
-96.145
-96.447
-96.733
-97.005
-97.264
-97.509
-97.742
-97.965
-98.177
-98.379
-98.574
-98.761
-98.941
-99.116
-99.287
-99.453
-99.616
-99.776
-99.934
-100.09
-100.245
-100.398
-100.551
-100.704
-100.857
-101.01
-101.164
-101.319
-101.475
-101.633
-101.792
-101.953
-102.115
-102.277
-102.44
-102.602
-102.763
-102.921
-103.075
-103.224
-103.367
-103.502
-103.627
-103.742
-103.843
-103.93
-104.002
-104.055
-104.089
-104.103
-104.094
-104.062
-104.004
-103.921
-103.811
-103.672
-103.503
-103.304
-103.073
-102.81
-102.514
-102.183
-101.818
-101.419
-100.985
-100.516
-100.014
-99.479
-98.911
-98.312
-97.684
-97.027
-96.345
-95.637
-94.907
-94.157
-93.389
-92.605
-91.808
-91
-90.185
-89.364
-88.539
-87.715
-86.891
-86.071
-85.257
-84.451
-83.654
-82.87
-82.1
-81.345
-80.608
-79.89
-79.193
-78.517
-77.863
-77.232
-76.623
-76.036
-75.47
-74.924
-74.398
-73.888
-73.395
-72.915
-72.446
-71.987
-71.534
-71.083
-70.632
-70.178
-69.716
-69.243
-68.755
-68.248
-67.721
-67.169
-66.59
-65.98
-65.337
-64.657
-63.937
-63.175
-62.366
-61.507
-60.595
-59.626
-58.6
-57.515
-56.371
-55.168
-53.906
-52.589
-51.22
-49.8
-48.332
-46.815
-45.25
-43.642
-41.999
-40.329
-38.64
-36.941
-35.241
-33.552
-31.889
-30.262
-28.673
-27.125
-25.619
-24.16
-22.76
-21.43
-20.18
-19.018
-17.945
-16.964
-16.081
-15.293
-14.593
-13.967
-13.393
-12.86
-12.371
-11.929
-11.539
-11.205
-10.921
-10.688
-10.503
-10.367
-10.278
-10.234
-10.231
-10.275
-10.378
-10.563
-10.863
-11.298
-11.872
-12.588
-13.436
-14.403
-15.477
-16.638
-17.86
-19.133
-20.453
-21.818
-23.231
-24.677
-26.12
-27.534
-28.885
-30.158
-31.354
-32.475
-33.528
-34.555
-35.649
-36.854
-38.133
-39.332
-40.16
-40.33
-39.641
-37.894
-34.82
-30.315
-24.583
-18.148
-11.916
-6.822
-3.444
-2.231
-3.7
-7.98
-14.558
-22.344
-29.478
-33.863
-34.006
-28.562
-15.945
4.859
34.059
71.063
114.01
160.399
208.064
254.467
296.182
329.854
352.409
361.363
355.301
333.285
294.711
239.802
171.018
92.788
8.682
-78.199
-165.763
-253.688
-337.005
-407.201
-456.949
-478.323
-470.525
-440.676
-395.735
-344.209
-291.269
-237.029
-183.115
-131.455
-84.817
-47.085
-19.695
-2.134
6.882
9.739
8.78
6.065
4.097
4.589
8.159
14.935
24.389
35.572
47.595
59.382
69.579
77.399
82.603
85.176
85.514
84.098
81.302
77.665
73.807
70.093
66.747
63.9
61.533
59.675
58.383
57.633
57.383
57.606
58.274
59.377
60.904
62.802
65.009
67.465
70.126
72.981
76.014
79.193
82.48
85.825
89.194
92.571
95.931
99.246
102.483
105.618
108.653
111.608
114.5
117.338
120.118
122.821
125.44
127.983
130.461
132.89
135.283
137.654
140.029
142.448
144.955
147.584
150.352
153.266
156.332
159.564
162.977
166.588
170.404
174.428
178.662
183.108
187.768
192.637
197.7
202.936
208.323
213.845
219.493
225.254
231.115
237.06
243.069
249.124
255.207
261.291
267.346
273.343
279.254
285.059
290.742
296.281
301.654
306.834
311.797
316.533
321.038
325.31
329.352
333.175
336.8
340.271
343.633
346.921
350.161
353.368
356.55
359.725
362.911
366.118
369.34
372.549
375.7
378.746
381.625
384.258
386.541
388.338
389.504
389.92
389.482
388.101
385.694
382.177
377.466
371.511
364.294
355.821
346.131
335.268
323.295
310.316
296.471
281.937
266.906
251.552
236.036
220.521
205.174
190.16
175.643
161.747
148.562
136.164
124.606
113.928
104.154
95.264
87.206
79.904
73.271
67.223
61.682
56.552
51.724
47.098
42.574
38.08
33.566
28.974
24.261
19.397
14.37
9.194
3.904
-1.464
-6.868
-12.264
-17.599
-22.81
-27.824
-32.588
-37.054
-41.18
-44.93
-48.256
-51.118
-53.5
-55.407
-56.859
-57.884
-58.514
-58.782
-58.74
-58.454
-57.992
-57.416
-56.772
-56.101
-55.449
-54.873
-54.443
-54.213
-54.215
-54.463
-54.959
-55.703
-56.689
-57.898
-59.289
-60.807
-62.402
-64.042
-65.706
-67.372
-69.01
-70.576
-72.016
-73.29
-74.38
-75.275
-75.974
-76.475
-76.784
-76.922
-76.932
-76.864
-76.75
-76.604
-76.42
-76.2
-75.956
-75.71
-75.495
-75.324
-75.196
-75.109
-75.056
-75.031
-75.022
-74.994
-74.886
-74.655
-74.278
-73.763
-73.151
-72.466
-71.726
-70.939
-70.113
-69.273
-68.455
-67.685
-66.984
-66.376
-65.896
-65.605
-65.598
-65.939
-66.655
-67.738
-69.141
-70.827
-72.768
-74.926
-77.256
-79.694
-82.176
-84.658
-87.115
-89.512
-91.802
-93.908
-95.722
-97.172
-98.219
-98.856
-99.105
-98.986
-98.519
-97.743
-96.719
-95.52
-94.209
-92.824
-91.383
-89.909
-88.439
-87.028
-85.747
-84.645
-83.749
-83.074
-82.619
-82.387
-82.371
-82.546
-82.867
-83.283
-83.756
-84.265
-84.804
-85.364
-85.931
-86.486
-87.005
-87.48
-87.902
-88.265
-88.565
-88.796
-88.958
-89.062
-89.128
-89.178
-89.226
-89.279
-89.338
-89.407
-89.486
-89.578
-89.68
-89.788
-89.9
-90.013
-90.129
-90.25
-90.375
-90.501
-90.625
-90.74
-90.846
-90.939
-91.019
-91.084
-91.133
-91.168
-91.188
-91.197
-91.197
-91.187
-91.167
-91.139
-91.1
-91.052
-90.994
-90.925
-90.846
-90.756
-90.656
-90.547
-90.429
-90.303
-90.171
-90.034
-89.892
-89.746
-89.598
-89.448
-89.297
-89.145
-88.994
-88.845
-88.698
-88.554
-88.415
-88.281
-88.154
-88.034
-87.921
-87.816
-87.72
-87.632
-87.554
-87.486
-87.428
-87.381
-87.347
-87.325
-87.317
-87.322
-87.342
-87.375
-87.423
-87.483
-87.554
-87.637
-87.728
-87.828
-87.935
-88.048
-88.165
-88.286
-88.409
-88.532
-88.653
-88.771
-88.881
-88.983
-89.074
-89.151
-89.211
-89.254
-89.278
-89.283
-89.266
-89.229
-89.171
-89.091
-88.988
-88.862
-88.71
-88.531
-88.323
-88.086
-87.818
-87.521
-87.197
-86.847
-86.474
-86.081
-85.673
-85.249
-84.812
-84.359
-83.889
-83.405
-82.914
-82.424
-81.952
-81.508
-81.107
-80.765
-80.495
-80.304
-80.196
-80.164
-80.199
-80.295
-80.455
-80.686
-80.998
-81.392
-81.866
-82.412
-83.015
-83.659
-84.319
-84.956
-85.535
-86.039
-86.461
-86.819
-87.147
-87.469
-87.801
-88.156
-88.539
-88.955
-89.415
-89.92
-90.475
-91.093
-91.799
-92.646
-93.687
-94.951
-96.442
-98.132
-99.966
-101.889
-103.852
-105.796
-107.671
-109.439
-111.07
-112.564
-113.939
-115.203
-116.339
-117.307
-118.05
-118.53
-118.754
-118.757
-118.606
-118.381
-118.146
-118.011
-118.134
-118.558
-119.227
-119.975
-120.457
-120.371
-119.578
-117.853
-114.93
-110.873
-105.902
-100.505
-95.66
-92.084
-90.133
-90.344
-93.079
-98.081
-104.82
-112.117
-117.916
-120.636
-119.023
-111.427
-96.632
-74.149
-43.938
-7.168
33.842
77.031
120.041
159.537
192.206
214.892
224.777
220.171
200.11
163.699
110.948
44.323
-31.938
-113.342
-196.018
-278.941
-362.142
-442.443
-513.109
-564.54
-588.309
-581.638
-547.968
-494.596
-428.06
-354.392
-279.969
-212.213
-160.251
-129.38
-118.009
-118.544
-121.673
-121.701
-117.904
-113.647
-111.326
-110.36
-109.027
-105.013
-97.542
-87.674
-76.685
-65.718
-55.809
-47.774
-42.066
-38.88
-38.082
-39.216
-41.832
-45.555
-49.917
-54.432
-58.765
-62.675
-66.038
-68.844
-71.071
-72.694
-73.737
-74.249
-74.276
-73.869
-73.068
-71.907
-70.442
-68.744
-66.886
-64.942
-62.98
-61.065
-59.262
-57.633
-56.223
-55.053
-54.126
-53.432
-52.951
-52.659
-52.524
-52.505
-52.561
-52.654
-52.748
-52.817
-52.831
-52.754
-52.55
-52.181
-51.615
-50.829
-49.802
-48.517
-46.961
-45.129
-43.026
-40.666
-38.064
-35.23
-32.165
-28.866
-25.333
-21.573
-17.599
-13.421
-9.054
-4.516
0.172
4.974
9.863
14.826
19.855
24.96
30.15
35.424
40.777
46.198
51.678
57.213
62.801
68.432
74.104
79.817
85.582
91.423
97.358
103.39
109.514
115.712
121.964
128.259
134.586
140.932
147.281
153.609
159.886
166.087
172.18
178.128
183.886
189.396
194.602
199.454
203.906
207.917
211.442
214.429
216.822
218.562
219.605
219.919
219.483
218.283
216.311
213.559
210.029
205.727
200.667
194.864
188.331
181.083
173.15
164.579
155.44
145.817
135.785
125.411
114.749
103.852
92.773
81.574
70.317
59.065
47.883
36.847
26.04
15.546
5.44
-4.232
-13.452
-22.228
-30.57
-38.476
-45.94
-52.954
-59.514
-65.622
-71.283
-76.502
-81.292
-85.689
-89.746
-93.518
-97.063
-100.411
-103.562
-106.5
-109.19
-111.614
-113.765
-115.639
-117.237
-118.569
-119.653
-120.515
-121.19
-121.689
-122.005
-122.128
-122.036
-121.736
-121.26
-120.653
-119.98
-119.296
-118.641
-118.051
-117.557
-117.167
-116.876
-116.653
-116.443
-116.214
-115.954
-115.66
-115.344
-115.002
-114.606
-114.124
-113.513
-112.734
-111.761
-110.562
-109.099
-107.367
-105.381
-103.185
-100.861
-98.468
-96.039
-93.6
-91.16
-88.738
-86.365
-84.068
-81.869
-79.796
-77.872
-76.133
-74.632
-73.39
-72.404
-71.647
-71.057
-70.589
-70.223
-69.935
-69.715
-69.546
-69.409
-69.294
-69.203
-69.127
-69.054
-68.959
-68.798
-68.551
-68.213
-67.794
-67.324
-66.822
-66.295
-65.753
-65.206
-64.659
-64.121
-63.586
-63.043
-62.485
-61.913
-61.334
-60.762
-60.207
-59.665
-59.131
-58.594
-58.046
-57.482
-56.896
-56.279
-55.625
-54.932
-54.2
-53.437
-52.647
-51.829
-50.985
-50.113
-49.213
-48.288
-47.342
-46.376
-45.396
-44.405
-43.408
-42.411
-41.419
-40.437
-39.466
-38.509
-37.569
-36.649
-35.75
-34.876
-34.028
-33.208
-32.417
-31.657
-30.931
-30.237
-29.578
-28.951
-28.357
-27.795
-27.263
-26.761
-26.286
-25.837
-25.411
-25.005
-24.619
-24.247
-23.888
-23.539
-23.195
-22.854
-22.511
-22.164
-21.808
-21.44
-21.056
-20.653
-20.228
-19.777
-19.299
-18.79
-18.248
-17.672
-17.06
-16.411
-15.724
-15
-14.238
-13.439
-12.604
-11.735
-10.834
-9.903
-8.944
-7.959
-6.952
-5.926
-4.882
-3.825
-2.757
-1.681
-0.601
0.481
1.562
2.638
3.707
4.767
5.815
6.848
7.865
8.864
9.843
10.799
11.733
12.644
13.53
14.393
15.233
16.05
16.847
17.625
18.387
19.135
19.873
20.603
21.33
22.055
22.784
23.52
24.267
25.028
25.808
26.61
27.437
28.293
29.18
30.103
31.063
32.064
33.107
34.195
35.33
36.516
37.754
39.047
40.397
41.804
43.271
44.797
46.382
48.025
49.724
51.476
53.279
55.131
57.029
58.971
60.956
62.98
65.043
67.141
69.275
71.439
73.631
75.845
78.076
80.324
82.587
84.861
87.142
89.422
91.693
93.946
96.173
98.359
100.484
102.53
104.48
106.323
108.056
109.676
111.178
112.562
113.821
114.961
115.996
116.937
117.791
118.571
119.287
119.965
120.639
121.341
122.095
122.916
123.803
124.754
125.773
126.852
127.979
129.138
130.289
131.409
132.483
133.492
134.419
135.235
135.889
136.346
136.583
136.582
136.342
135.868
135.151
134.199
133.026
131.644
130.086
128.367
126.471
124.394
122.13
119.687
117.108
114.414
111.601
108.667
105.589
102.343
98.95
95.398
91.645
87.751
83.82
80.045
76.778
74.314
72.855
72.672
73.956
76.635
80.507
85.131
89.795
94.026
97.486
99.705
100.554
100.403
99.916
100.259
102.86
108.626
118.355
133.151
153.577
179.516
210.367
244.576
280.268
316.205
350.938
382.109
407.445
424.998
433.136
431.136
418.434
393.662
355.623
305.952
248.3
185.632
121.176
54.081
-20.313
-100.341
-181.035
-252.755
-298.488
-309.602
-284.005
-224.741
-147.226
-64.377
12.372
70.709
109.46
129.549
134.999
136.724
139.347
144.225
151.356
155.725
155.776
153.76
151.483
151.497
154.954
160.843
168.092
175.969
183.621
190.118
194.959
197.885
198.851
198.27
196.561
193.988
190.992
188.103
185.652
183.869
182.851
182.512
182.801
183.704
185.149
187.054
189.352
191.965
194.849
197.981
201.319
204.805
208.363
211.917
215.397
218.758
221.973
225.021
227.883
230.549
233.016
235.285
237.362
239.249
240.931
242.404
243.665
244.72
245.581
246.26
246.77
247.13
247.362
247.502
247.601
247.71
247.888
248.204
248.727
249.537
250.722
252.35
254.482
257.172
260.472
264.446
269.146
274.602
280.82
287.781
295.44
303.74
312.597
321.895
331.509
341.299
351.132
360.913
370.55
379.957
389.039
397.682
405.78
413.248
420.016
426.033
431.269
435.709
439.384
442.373
444.775
446.713
448.283
449.54
450.535
451.316
451.937
452.474
452.998
453.569
454.253
455.127
456.256
457.698
459.458
461.482
463.692
465.982
468.271
470.512
472.653
474.647
476.441
477.98
479.213
480.092
480.54
480.447
479.699
478.182
475.831
472.627
468.575
463.699
458.009
451.512
444.229
436.185
427.406
417.906
407.69
396.771
385.201
373.082
360.529
347.66
334.57
321.333
308.022
294.711
281.484
268.402
255.508
242.838
230.429
218.346
206.671
195.47
184.771
174.572
164.857
155.609
146.825
138.483
130.544
122.955
115.654
108.612
101.825
95.286
88.985
82.886
76.931
71.082
65.326
59.648
54.034
48.466
42.914
37.387
31.929
26.585
21.408
16.427
11.641
7.063
2.717
-1.364
-5.134
-8.558
-11.62
-14.289
-16.514
-18.251
-19.452
-20.106
-20.249
-19.912
-19.125
-17.918
-16.312
-14.35
-12.099
-9.635
-7.033
-4.384
-1.761
0.747
3.03
4.99
6.539
7.614
8.184
8.219
7.68
6.538
4.784
2.429
-0.481
-3.886
-7.72
-11.893
-16.315
-20.899
-25.544
-30.167
-34.703
-39.095
-43.299
-47.275
-50.971
-54.337
-57.351
-60.003
-62.31
-64.308
-66.043
-67.582
-69.007
-70.384
-71.775
-73.227
-74.77
-76.429
-78.227
-80.183
-82.322
-84.673
-87.252
-90.066
-93.116
-96.381
-99.833
-103.431
-107.118
-110.849
-114.587
-118.303
-121.981
-125.608
-129.168
-132.652
-136.052
-139.351
-142.537
-145.598
-148.523
-151.31
-153.961
-156.485
-158.896
-161.207
-163.426
-165.557
-167.601
-169.559
-171.429
-173.21
-174.899
-176.499
-178.012
-179.444
-180.8
-182.087
-183.306
-184.46
-185.551
-186.58
-187.548
-188.462
-189.327
-190.155
-190.956
-191.738
-192.508
-193.271
-194.025
-194.766
-195.489
-196.186
-196.855
-197.496
-198.116
-198.727
-199.345
-199.986
-200.659
-201.366
-202.107
-202.882
-203.697
-204.558
-205.482
-206.494
-207.625
-208.915
-210.394
-212.085
-213.99
-216.093
-218.365
-220.76
-223.244
-225.784
-228.355
-230.941
-233.523
-236.082
-238.591
-241.013
-243.291
-245.351
-247.125
-248.552
-249.6
-250.267
-250.571
-250.564
-250.303
-249.85
-249.268
-248.596
-247.866
-247.1
-246.32
-245.555
-244.862
-244.311
-243.978
-243.937
-244.236
-244.907
-245.962
-247.37
-249.075
-251
-253.059
-255.191
-257.358
-259.531
-261.694
-263.822
-265.875
-267.809
-269.579
-271.128
-272.41
-273.378
-273.99
-274.245
-274.167
-273.81
-273.238
-272.492
-271.599
-270.581
-269.451
-268.229
-266.939
-265.597
-264.219
-262.833
-261.467
-260.159
-258.952
-257.859
-256.885
-256.023
-255.26
-254.601
-254.053
-253.615
-253.285
-253.056
-252.915
-252.854
-252.854
-252.892
-252.951
-253
-253.012
-252.971
-252.852
-252.623
-252.248
-251.674
-250.852
-249.749
-248.333
-246.582
-244.492
-242.068
-239.339
-236.34
-233.096
-229.64
-226.005
-222.22
-218.332
-214.402
-210.498
-206.707
-203.123
-199.825
-196.892
-194.393
-192.372
-190.853
-189.837
-189.307
-189.247
-189.632
-190.431
-191.614
-193.141
-194.96
-197.011
-199.216
-201.477
-203.71
-205.832
-207.768
-209.465
-210.88
-211.99
-212.801
-213.341
-213.65
-213.779
-213.771
-213.658
-213.472
-213.254
-213.075
-213.019
-213.171
-213.608
-214.372
-215.528
-217.156
-219.237
-221.663
-224.211
-226.517
-228.277
-229.292
-229.305
-228.114
-225.764
-222.43
-218.554
-214.847
-211.749
-209.529
-208.547
-208.82
-209.959
-211.324
-211.725
-209.744
-204.494
-195.173
-180.809
-161.007
-135.784
-105.582
-71.916
-36.516
-0.432
34.807
66.911
94.102
113.51
122.353
120.619
107.4
82.931
49.937
8.402
-41.062
-98.167
-167.036
-249.292
-341.883
-438.455
-524.714
-583.45
-605.607
-587.577
-534.145
-461.677
-383.007
-310.147
-255.279
-218.548
-198.686
-192.14
-188.56
-184.21
-178.447
-171.072
-166.314
-165.237
-165.498
-165.318
-162.349
-155.561
-145.88
-134.425
-122.271
-110.489
-100.066
-91.606
-85.379
-81.432
-79.458
-79.065
-79.919
-81.588
-83.589
-85.598
-87.399
-88.852
-89.934
-90.601
-90.796
-90.517
-89.78
-88.604
-87.012
-85.026
-82.666
-79.974
-77.01
-73.834
-70.501
-67.068
-63.588
-60.115
-56.706
-53.415
-50.278
-47.318
-44.546
-41.96
-39.548
-37.295
-35.176
-33.159
-31.217
-29.32
-27.44
-25.556
-23.645
-21.682
-19.645
-17.507
-15.25
-12.86
-10.328
-7.648
-4.818
-1.837
1.293
4.566
7.975
11.516
15.185
18.98
22.899
26.937
31.091
35.354
39.723
44.195
48.767
53.434
58.192
63.037
67.964
72.974
78.065
83.232
88.467
93.758
99.094
104.463
109.848
115.229
120.582
125.884
131.118
136.267
141.319
146.257
151.064
155.722
160.215
164.534
168.675
172.639
176.425
180.044
183.514
186.861
190.116
193.302
196.424
199.49
202.499
205.451
208.35
211.19
213.955
216.625
219.177
221.578
223.79
225.759
227.407
228.653
229.414
229.622
229.234
228.203
226.487
224.05
220.861
216.905
212.188
206.713
200.482
193.515
185.847
177.539
168.689
159.395
149.757
139.862
129.791
119.626
109.461
99.39
89.486
79.811
70.417
61.355
52.696
44.489
36.762
29.522
22.743
16.398
10.465
4.924
-0.256
-5.109
-9.689
-14.049
-18.225
-22.245
-26.135
-29.925
-33.661
-37.378
-41.094
-44.813
-48.527
-52.228
-55.913
-59.581
-63.214
-66.793
-70.288
-73.666
-76.912
-80.015
-82.962
-85.743
-88.34
-90.741
-92.945
-94.957
-96.783
-98.431
-99.902
-101.202
-102.343
-103.342
-104.214
-104.979
-105.651
-106.238
-106.751
-107.199
-107.591
-107.933
-108.229
-108.478
-108.683
-108.846
-108.971
-109.06
-109.115
-109.136
-109.122
-109.074
-108.992
-108.878
-108.733
-108.557
-108.354
-108.125
-107.875
-107.607
-107.325
-107.031
-106.728
-106.418
-106.104
-105.789
-105.473
-105.159
-104.848
-104.542
-104.242
-103.949
-103.665
-103.39
-103.126
-102.871
-102.627
-102.393
-102.169
-101.954
-101.746
-101.547
-101.353
-101.165
-100.981
-100.799
-100.619
-100.439
-100.257
-100.071
-99.878
-99.677
-99.465
-99.239
-98.997
-98.737
-98.456
-98.152
-97.823
-97.467
-97.082
-96.667
-96.22
-95.741
-95.229
-94.682
-94.102
-93.488
-92.841
-92.162
-91.452
-90.714
-89.948
-89.157
-88.342
-87.507
-86.652
-85.781
-84.895
-83.997
-83.09
-82.175
-81.255
-80.334
-79.414
-78.499
-77.59
-76.692
-75.806
-74.935
-74.082
-73.248
-72.437
-71.65
-70.888
-70.154
-69.448
-68.771
-68.125
-67.507
-66.92
-66.362
-65.831
-65.328
-64.852
-64.4
-63.971
-63.565
-63.18
-62.815
-62.469
-62.141
-61.829
-61.532
-61.248
-60.978
-60.718
-60.467
-60.225
-59.99
-59.762
-59.538
-59.318
-59.101
-58.887
-58.674
-58.462
-58.25
-58.039
-57.828
-57.617
-57.406
-57.197
-56.989
-56.785
-56.583
-56.386
-56.194
-56.007
-55.827
-55.652
-55.485
-55.324
-55.17
-55.023
-54.882
-54.749
-54.622
-54.502
-54.389
-54.281
-54.179
-54.082
-53.99
-53.902
-53.818
-53.736
-53.656
-53.578
-53.499
-53.42
-53.338
-53.253
-53.163
-53.066
-52.96
-52.844
-52.715
-52.573
-52.414
-52.239
-52.045
-51.831
-51.595
-51.337
-51.054
-50.746
-50.411
-50.047
-49.652
-49.225
-48.763
-48.265
-47.727
-47.149
-46.527
-45.858
-45.14
-44.37
-43.544
-42.66
-41.714
-40.703
-39.623
-38.472
-37.246
-35.943
-34.559
-33.092
-31.539
-29.897
-28.163
-26.333
-24.407
-22.38
-20.25
-18.015
-15.672
-13.221
-10.661
-7.99
-5.209
-2.317
0.683
3.79
7.001
10.314
13.724
17.226
20.814
24.483
28.224
32.03
35.892
39.8
43.744
47.713
51.697
55.685
59.664
63.623
67.548
71.429
75.253
79.007
82.679
86.256
89.726
93.077
96.297
99.376
102.301
105.062
107.651
110.061
112.288
114.328
116.176
117.829
119.284
120.543
121.609
122.485
123.176
123.687
124.03
124.224
124.289
124.246
124.113
123.903
123.631
123.312
122.967
122.616
122.277
121.963
121.687
121.462
121.302
121.211
121.183
121.189
121.188
121.143
121.022
120.804
120.478
120.024
119.401
118.575
117.499
116.131
114.458
112.434
109.988
107.157
104.052
100.892
98.033
95.763
94.279
93.851
94.692
96.758
99.85
103.489
106.941
109.756
111.637
112.171
111.261
109.223
106.703
104.941
105.385
108.954
116.502
129.083
147.269
171.259
200.584
233.586
268.639
304.65
339.894
372.145
398.501
414.938
419.518
412.402
394.579
368.731
335.09
292.104
237.929
169.556
86.567
-9.429
-112.637
-212.889
-298.38
-354.995
-375.232
-358.582
-309.071
-239.364
-160.954
-82.912
-16.583
31.123
57.607
62.075
51.572
38.688
30.301
31.2
42.104
54.588
65.011
72.392
74.891
77.019
81.278
87.003
94.864
103.064
109.534
114.154
116.707
117.259
116.39
114.386
111.425
107.942
104.445
101.253
98.592
96.625
95.34
94.734
94.846
95.624
96.995
98.904
101.273
104.031
107.126
110.486
114.026
117.664
121.305
124.861
128.257
131.439
134.372
137.038
139.427
141.54
143.388
144.993
146.385
147.598
148.662
149.609
150.472
151.289
152.101
152.943
153.848
154.837
155.923
157.12
158.439
159.89
161.48
163.215
165.105
167.165
169.414
171.862
174.517
177.374
180.427
183.67
187.098
190.707
194.49
198.431
202.518
206.736
211.069
215.491
219.96
224.415
228.795
233.053
237.158
241.096
244.86
248.449
251.864
255.12
258.24
261.253
264.184
267.053
269.882
272.712
275.605
278.65
281.941
285.543
289.495
293.814
298.494
303.516
308.846
314.421
320.163
325.992
331.824
337.588
343.208
348.585
353.602
358.113
361.965
365.034
367.227
368.476
368.741
368.006
366.272
363.571
359.957
355.484
350.211
344.198
337.5
330.2
322.389
314.171
305.666
296.968
288.144
279.241
270.28
261.263
252.191
243.051
233.82
224.484
215.028
205.435
195.695
185.789
175.706
165.441
154.991
144.378
133.654
122.889
112.188
101.663
91.418
81.549
72.145
63.276
55.014
47.426
40.574
34.519
29.303
24.945
21.449
18.787
16.903
15.712
15.093
14.915
15.054
15.404
15.876
16.399
16.904
17.321
17.585
17.623
17.383
16.83
15.943
14.728
13.206
11.427
9.467
7.413
5.353
3.355
1.464
-0.286
-1.869
-3.257
-4.422
-5.333
-5.969
-6.321
-6.387
-6.178
-5.705
-4.998
-4.097
-3.052
-1.917
-0.731
0.485
1.715
2.943
4.151
5.314
6.401
7.397
8.293
9.087
9.781
10.369
10.844
11.203
11.44
11.552
11.528
11.34
10.964
10.393
9.636
8.726
7.71
6.618
5.469
4.27
3.022
1.74
0.45
-0.822
-2.043
-3.163
-4.128
-4.856
-5.275
-5.35
-5.081
-4.512
-3.717
-2.759
-1.685
-0.525
0.701
1.964
3.23
4.47
5.64
6.674
7.483
7.944
7.948
7.432
6.385
4.85
2.913
0.669
-1.795
-4.405
-7.103
-9.839
-12.57
-15.262
-17.867
-20.314
-22.498
-24.279
-25.531
-26.173
-26.173
-25.56
-24.407
-22.819
-20.914
-18.807
-16.586
-14.321
-12.062
-9.85
-7.738
-5.794
-4.111
-2.813
-2.014
-1.804
-2.234
-3.303
-4.963
-7.124
-9.672
-12.493
-15.498
-18.623
-21.82
-25.052
-28.278
-31.453
-34.52
-37.406
-40.033
-42.324
-44.227
-45.727
-46.848
-47.654
-48.217
-48.616
-48.908
-49.135
-49.327
-49.509
-49.694
-49.894
-50.121
-50.396
-50.749
-51.226
-51.854
-52.641
-53.575
-54.619
-55.735
-56.888
-58.046
-59.187
-60.29
-61.342
-62.34
-63.288
-64.191
-65.048
-65.853
-66.587
-67.241
-67.812
-68.305
-68.732
-69.105
-69.431
-69.723
-69.992
-70.247
-70.495
-70.738
-70.974
-71.2
-71.419
-71.633
-71.847
-72.067
-72.296
-72.537
-72.791
-73.063
-73.356
-73.672
-74.012
-74.378
-74.771
-75.194
-75.652
-76.147
-76.682
-77.258
-77.878
-78.542
-79.254
-80.013
-80.821
-81.676
-82.579
-83.528
-84.521
-85.557
-86.631
-87.741
-88.884
-90.054
-91.249
-92.466
-93.7
-94.948
-96.207
-97.472
-98.741
-100.008
-101.269
-102.518
-103.75
-104.958
-106.137
-107.282
-108.386
-109.444
-110.45
-111.402
-112.296
-113.125
-113.885
-114.566
-115.161
-115.667
-116.079
-116.401
-116.634
-116.782
-116.857
-116.874
-116.848
-116.797
-116.726
-116.635
-116.521
-116.381
-116.214
-116.02
-115.794
-115.528
-115.213
-114.841
-114.402
-113.884
-113.258
-112.479
-111.502
-110.283
-108.8
-107.053
-105.05
-102.811
-100.366
-97.752
-95.022
-92.242
-89.465
-86.732
-84.088
-81.574
-79.257
-77.229
-75.586
-74.425
-73.821
-73.816
-74.436
-75.682
-77.522
-79.899
-82.728
-85.899
-89.325
-92.936
-96.67
-100.471
-104.264
-107.953
-111.433
-114.593
-117.33
-119.558
-121.219
-122.284
-122.766
-122.717
-122.225
-121.41
-120.374
-119.205
-117.977
-116.743
-115.564
-114.499
-113.619
-112.999
-112.722
-112.867
-113.494
-114.634
-116.285
-118.413
-120.95
-123.802
-126.87
-130.054
-133.276
-136.48
-139.619
-142.658
-145.56
-148.282
-150.781
-153.009
-154.93
-156.519
-157.764
-158.663
-159.233
-159.509
-159.537
-159.375
-159.061
-158.61
-158.026
-157.304
-156.439
-155.425
-154.256
-152.91
-151.373
-149.638
-147.703
-145.583
-143.292
-140.838
-138.228
-135.468
-132.583
-129.619
-126.631
-123.668
-120.781
-118.022
-115.452
-113.154
-111.196
-109.625
-108.476
-107.758
-107.47
-107.609
-108.159
-109.083
-110.337
-111.863
-113.596
-115.493
-117.508
-119.586
-121.674
-123.697
-125.595
-127.334
-128.888
-130.241
-131.392
-132.349
-133.133
-133.795
-134.377
-134.913
-135.441
-135.974
-136.532
-137.152
-137.859
-138.68
-139.628
-140.682
-141.831
-143.082
-144.433
-145.879
-147.405
-148.942
-150.474
-152.066
-153.682
-155.218
-156.474
-157.072
-156.704
-155.253
-152.529
-148.319
-142.749
-136.121
-129.05
-122.661
-117.799
-114.894
-114.434
-116.659
-121.149
-127.155
-133.316
-137.503
-138.121
-134.038
-123.937
-106.998
-83.199
-53.096
-18.105
19.704
58.673
97.049
131.523
158.108
173.562
176.258
168.506
154.421
136.599
114.854
82.657
32.222
-42.617
-144.702
-263.627
-384.297
-489.431
-558.552
-586.216
-573.712
-526.013
-460.546
-388.97
-321.281
-269.778
-234.347
-212.705
-200.705
-188.184
-172.067
-153.017
-132.806
-117.359
-109.051
-106.903
-109.391
-113.039
-115.501
-116.485
-115.996
-114.381
-112.005
-108.887
-105.213
-101.667
-99.006
-97.596
-97.501
-98.546
-100.4
-102.807
-105.533
-108.188
-110.346
-111.747
-112.269
-111.918
-110.792
-108.964
-106.481
-103.426
-99.912
-96.038
-91.897
-87.555
-83.063
-78.484
-73.896
-69.372
-64.968
-60.72
-56.642
-52.743
-49.031
-45.505
-42.155
-38.963
-35.898
-32.936
-30.053
-27.23
-24.444
-21.682
-18.93
-16.178
-13.43
-10.687
-7.945
-5.193
-2.408
0.439
3.381
6.439
9.63
12.966
16.463
20.135
24
28.077
32.395
36.985
41.888
47.136
52.749
58.729
65.058
71.703
78.621
85.775
93.138
100.686
108.397
116.244
124.204
132.245
140.334
148.426
156.463
164.388
172.153
179.728
187.101
194.275
201.26
208.058
214.664
221.071
227.272
233.264
239.041
244.601
249.944
255.086
260.062
264.914
269.67
274.342
278.92
283.384
287.718
291.909
295.941
299.798
303.455
306.886
310.071
312.985
315.587
317.818
319.59
320.815
321.425
321.372
320.627
319.164
316.955
313.973
310.204
305.639
300.275
294.109
287.132
279.353
270.815
261.584
251.762
241.452
230.734
219.688
208.389
196.912
185.344
173.771
162.266
150.915
139.811
129.049
118.735
108.95
99.737
91.122
83.103
75.677
68.848
62.612
56.953
51.851
47.281
43.209
39.606
36.422
33.584
31.021
28.655
26.426
24.301
22.249
20.255
18.305
16.389
14.503
12.655
10.85
9.093
7.394
5.763
4.227
2.824
1.59
0.554
-0.265
-0.858
-1.221
-1.354
-1.262
-0.96
-0.464
0.205
1.029
1.994
3.079
4.265
5.525
6.827
8.147
9.462
10.755
12.012
13.22
14.368
15.449
16.463
17.406
18.277
19.072
19.787
20.42
20.969
21.434
21.814
22.109
22.318
22.44
22.473
22.419
22.277
22.045
21.723
21.311
20.812
20.228
19.562
18.818
18.001
17.116
16.168
15.162
14.106
13.004
11.861
10.684
9.479
8.252
7.007
