Name
Date of Birth,"Aug 26, 1996"
Recorded Date,2018-12-13 18:21:36 -0500
Classification,Sinus Rhythm
Symptoms,
Software Version,1.1
Device,"Watch4,2"
Sample Rate,512.352 hertz


Lead,Lead I
Unit,µV

-161.946
-178.835
-194.381
-208.211
-220.055
-229.72
-237.074
-242.031
-244.516
-244.506
-242.06
-237.307
-230.448
-221.726
-211.362
-199.582
-186.648
-172.85
-158.518
-143.984
-129.49
-115.223
-101.334
-87.941
-75.155
-63.065
-51.695
-41.032
-31.04
-21.66
-12.851
-4.569
3.264
10.748
18.009
25.177
32.328
39.498
46.715
53.997
61.353
68.787
76.273
83.769
91.244
98.683
106.075
113.411
120.663
127.78
134.707
141.388
147.791
153.898
159.681
165.103
170.127
174.736
178.918
182.669
185.957
188.716
190.889
192.428
193.299
193.502
193.037
191.91
190.139
187.769
184.874
181.556
177.922
174.054
170.028
165.938
161.908
158.105
154.685
151.784
149.53
148.036
147.413
147.755
149.111
151.468
154.777
158.964
163.952
169.694
176.132
183.172
190.692
198.532
206.531
214.539
222.395
229.909
236.88
243.132
248.544
253.052
256.61
259.156
260.598
260.826
259.748
257.324
253.554
248.441
241.989
234.208
225.129
214.841
203.484
191.141
177.831
163.679
148.918
133.958
119.464
106.036
94.161
84.412
77.238
72.668
70.472
69.983
70.076
69.953
68.974
66.278
61.607
55.515
49.064
44.167
43.099
47.392
58.634
78.934
109.415
150.223
200.54
257.991
319.859
383.867
446.707
503.569
549.908
581.559
594.895
587.534
557.133
501.407
421.701
323.718
213.252
94.749
-32.258
-171.35
-319.435
-464.038
-583.177
-655.202
-670.804
-635.981
-571.392
-498.672
-430.766
-371.632
-316.745
-262.549
-210.828
-165.853
-132.585
-112.758
-104.523
-104.613
-109.397
-116.078
-122.172
-125.454
-124.853
-120.124
-111.705
-100.803
-88.65
-76.367
-65.373
-56.707
-50.73
-47.471
-46.529
-47.213
-48.91
-51.004
-52.753
-53.652
-53.45
-51.995
-49.334
-45.574
-40.773
-35.054
-28.597
-21.547
-14.041
-6.229
1.767
9.797
17.679
25.285
32.517
39.297
45.582
51.337
56.532
61.162
65.25
68.815
71.882
74.487
76.655
78.415
79.802
80.851
81.58
81.998
82.085
81.802
81.13
80.055
78.575
76.7
74.42
71.745
68.709
65.343
61.697
57.838
53.827
49.745
45.722
41.876
38.345
35.279
32.78
30.935
29.823
29.496
30.015
31.427
33.744
36.979
41.149
46.243
52.257
59.14
66.771
75.034
83.802
92.934
102.331
111.885
121.475
130.994
140.331
149.366
157.994
166.089
173.484
180.039
185.612
190.108
193.506
195.784
196.924
196.928
195.783
193.501
190.13
185.711
180.288
173.933
166.727
158.789
150.297
141.407
132.265
122.989
113.646
104.305
95.038
85.897
76.928
68.162
59.604
51.269
43.182
35.349
27.755
20.356
13.068
5.829
-1.404
-8.647
-15.901
-23.17
-30.45
-37.725
-44.958
-52.104
-59.123
-66.002
-72.731
-79.295
-85.66
-91.764
-97.545
-102.951
-107.951
-112.537
-116.693
-120.389
-123.622
-126.407
-128.779
-130.788
-132.45
-133.743
-134.657
-135.195
-135.374
-135.23
-134.788
-134.052
-133.033
-131.735
-130.177
-128.39
-126.375
-124.1
-121.525
-118.597
-115.293
-111.635
-107.622
-103.23
-98.447
-93.265
-87.697
-81.794
-75.586
-69.087
-62.322
-55.316
-48.127
-40.853
-33.591
-26.452
-19.549
-12.987
-6.889
-1.404
3.358
7.316
10.404
12.596
13.849
14.096
13.295
11.423
8.458
4.411
-0.704
-6.872
-14.023
-22.048
-30.829
-40.221
-50.117
-60.439
-71.099
-82.03
-93.164
-104.403
-115.666
-126.87
-137.888
-148.599
-158.877
-168.584
-177.644
-186.039
-193.758
-200.811
-207.199
-212.905
-217.938
-222.299
-225.976
-228.977
-231.306
-232.999
-234.161
-234.918
-235.41
-235.801
-236.23
-236.787
-237.554
-238.589
-239.934
-241.638
-243.731
-246.246
-249.24
-252.766
-256.881
-261.609
-266.916
-272.74
-278.999
-285.582
-292.37
-299.273
-306.211
-313.13
-320.002
-326.799
-333.5
-340.085
-346.517
-352.751
-358.73
-364.415
-369.791
-374.865
-379.665
-384.237
-388.646
-392.945
-397.177
-401.369
-405.523
-409.639
-413.714
-417.74
-421.707
-425.618
-429.483
-433.312
-437.109
-440.868
-444.57
-448.188
-451.682
-455.018
-458.163
-461.091
-463.784
-466.229
-468.419
-470.348
-472.017
-473.422
-474.557
-475.412
-475.977
-476.246
-476.215
-475.882
-475.251
-474.323
-473.102
-471.592
-469.797
-467.718
-465.358
-462.717
-459.793
-456.588
-453.103
-449.339
-445.3
-440.992
-436.419
-431.587
-426.503
-421.172
-415.601
-409.797
-403.765
-397.509
-391.035
-384.345
-377.446
-370.339
-363.028
-355.516
-347.805
-339.9
-331.803
-323.519
-315.049
-306.397
-297.563
-288.553
-279.367
-270.004
-260.465
-250.75
-240.859
-230.796
-220.562
-210.159
-199.59
-188.857
-177.963
-166.916
-155.719
-144.369
-132.866
-121.209
-109.402
-97.464
-85.407
-73.242
-60.983
-48.644
-36.243
-23.806
-11.347
1.134
13.635
26.159
38.693
51.212
63.691
76.106
88.443
100.705
112.885
124.961
136.924
148.771
160.503
172.138
183.657
195.003
206.125
216.974
227.518
237.752
247.66
257.22
266.405
275.178
283.517
291.418
298.853
305.782
312.161
317.934
323.102
327.72
331.827
335.461
338.637
341.356
343.638
345.52
347.03
348.195
349.039
349.589
349.911
350.089
350.206
350.341
350.523
350.745
351.019
351.37
351.829
352.431
353.177
354.063
355.103
356.303
357.654
359.108
360.542
361.839
362.896
363.628
364.007
363.997
363.529
362.517
360.872
358.518
355.446
351.643
347.035
341.694
335.829
329.792
324.186
319.576
316.353
314.85
315.346
317.718
321.62
326.626
331.891
336.671
340.502
342.983
344.103
344.684
345.92
348.941
355.279
366.257
383.056
407.092
439.048
478.412
523.957
574.216
627.261
681.024
732.752
778.449
814.249
836.861
843.536
831.877
799.737
745.665
669.794
574.658
464.262
343.537
218.012
93.994
-20.975
-119.75
-196.429
-246.889
-271.209
-270.694
-244.91
-197.273
-129.28
-42.591
50.14
139.584
215.473
265.611
294.521
307.877
310.867
312.74
312.251
307.348
299.774
290.034
281.726
277.643
277.387
280.137
284.326
288.591
291.981
293.085
291.054
285.692
277.166
266.246
253.706
240.104
226.175
212.736
200.322
189.271
179.713
171.529
164.653
159.047
154.576
151.101
148.483
146.564
145.227
144.352
143.761
143.264
142.671
141.805
140.574
138.931
136.851
134.358
131.492
128.335
125.029
121.703
118.466
115.438
112.723
110.453
108.807
107.937
107.971
109.017
111.117
114.3
118.584
123.938
130.299
137.569
145.602
154.277
163.508
173.205
183.283
193.642
204.143
214.675
225.154
235.505
245.675
255.612
265.256
274.585
283.605
292.34
300.837
309.119
317.177
325.007
332.6
339.95
347.065
353.932
360.518
366.795
372.732
378.298
383.473
388.217
392.473
396.186
399.295
401.754
403.53
404.588
404.898
404.436
403.187
401.148
398.328
394.739
390.393
385.31
379.517
373.046
365.934
358.214
349.918
341.075
331.715
321.87
311.577
300.86
289.729
278.189
266.238
253.874
241.098
227.905
214.276
200.204
185.697
170.773
155.467
139.821
123.885
107.713
91.363
74.919
58.489
42.194
26.175
10.567
-4.502
-18.893
-32.455
-45.063
-56.614
-67.029
-76.258
-84.262
-91.015
-96.501
-100.724
-103.724
-105.566
-106.343
-106.175
-105.182
-103.482
-101.219
-98.541
-95.575
-92.422
-89.153
-85.815
-82.455
-79.112
-75.813
-72.567
-69.354
-66.148
-62.915
-59.603
-56.167
-52.551
-48.67
-44.441
-39.818
-34.78
-29.344
-23.548
-17.433
-11.046
-4.467
2.188
8.788
15.204
21.331
27.072
32.331
37.002
40.942
44.023
46.153
47.27
47.343
46.357
44.303
41.179
37.058
32.067
26.351
20.066
13.327
6.222
-1.151
-8.69
-16.264
-23.751
-31.056
-38.109
-44.839
-51.18
-57.061
-62.408
-67.225
-71.576
-75.544
-79.237
-82.721
-86.031
-89.212
-92.309
-95.368
-98.434
-101.53
-104.662
-107.856
-111.145
-114.578
-118.216
-122.07
-126.109
-130.291
-134.551
-138.845
-143.155
-147.457
-151.729
-155.959
-160.142
-164.285
-168.414
-172.534
-176.64
-180.718
-184.742
-188.705
-192.616
-196.489
-200.35
-204.218
-208.1
-212.009
-215.956
-219.944
-223.969
-228.019
-232.072
-236.113
-240.131
-244.116
-248.063
-251.961
-255.796
-259.553
-263.214
-266.761
-270.176
-273.439
-276.529
-279.426
-282.113
-284.577
-286.804
-288.785
-290.505
-291.954
-293.122
-293.999
-294.577
-294.848
-294.805
-294.444
-293.76
-292.752
-291.421
-289.769
-287.8
-285.517
-282.928
-280.039
-276.859
-273.4
-269.671
-265.685
-261.455
-256.996
-252.322
-247.449
-242.394
-237.173
-231.802
-226.299
-220.681
-214.964
-209.164
-203.297
-197.379
-191.424
-185.446
-179.459
-173.473
-167.502
-161.554
-155.64
-149.768
-143.945
-138.178
-132.471
-126.829
-121.256
-115.753
-110.322
-104.964
-99.678
-94.462
-89.316
-84.238
-79.224
-74.272
-69.38
-64.545
-59.766
-55.04
-50.367
-45.745
-41.174
-36.654
-32.187
-27.774
-23.419
-19.125
-14.899
-10.747
-6.675
-2.695
1.185
4.953
8.596
12.102
15.456
18.643
21.647
24.45
27.036
29.384
31.477
33.293
34.814
36.019
36.888
37.403
37.546
37.297
36.642
35.563
34.047
32.08
29.65
26.747
23.361
19.486
15.117
10.251
4.887
-0.972
-7.323
-14.159
-21.471
-29.247
-37.475
-46.139
-55.22
-64.7
-74.554
-84.759
-95.287
-106.109
-117.193
-128.507
-140.015
-151.683
-163.473
-175.348
-187.271
-199.204
-211.109
-222.947
-234.68
-246.272
-257.683
-268.878
-279.821
-290.477
-300.813
-310.799
-320.404
-329.601
-338.365
-346.674
-354.507
-361.845
-368.672
-374.976
-380.745
-385.972
-390.653
-394.785
-398.371
-401.415
-403.926
-405.916
-407.398
-408.388
-408.904
-408.966
-408.596
-407.815
-406.646
-405.113
-403.239
-401.052
-398.58
-395.85
-392.892
-389.733
-386.404
-382.931
-379.343
-375.662
-371.905
-368.089
-364.23
-360.347
-356.462
-352.595
-348.757
-344.962
-341.22
-337.537
-333.915
-330.339
-326.783
-323.225
-319.645
-316.03
-312.382
-308.691
-304.943
-301.128
-297.221
-293.207
-289.08
-284.821
-280.409
-275.841
-271.131
-266.33
-261.525
-256.78
-252.136
-247.62
-243.241
-239.045
-235.087
-231.416
-228.097
-225.156
-222.647
-220.706
-219.351
-218.435
-217.668
-216.535
-214.51
-211.288
-206.487
-199.628
-190.693
-180.018
-168.356
-157.034
-147.095
-139.056
-133.587
-131.369
-132.209
-135.223
-138.648
-139.768
-136.462
-127.266
-110.3
-83.605
-46.169
1.999
59.427
123.306
191.06
259.977
326.079
384.634
430.718
459.709
468.194
453.294
414.094
352.934
273.141
179.405
71.949
-54.738
-199.437
-354.609
-500.861
-606.615
-655.598
-645.812
-587.382
-508.911
-426.028
-342.546
-266.07
-192.61
-125.648
-77.425
-45.146
-27.465
-21.304
-16.912
-15.13
-17.061
-20.34
-24.677
-26.499
-22.984
-14.623
-2.19
12.741
28.502
43.886
57.357
67.836
74.954
78.77
79.857
78.836
76.221
72.646
68.854
65.436
62.754
60.975
60.054
59.933
60.617
62.074
64.243
67.053
70.434
74.318
78.674
83.471
88.624
94.028
99.549
105.022
110.329
115.394
120.154
124.576
128.636
132.302
135.572
138.482
141.046
143.276
145.16
146.652
147.75
148.498
148.955
149.214
149.359
149.46
149.608
149.904
150.432
151.27
152.473
154.063
156.1
158.656
161.818
165.702
170.382
175.881
182.208
189.341
197.224
205.794
214.948
224.545
234.486
244.687
255.076
265.609
276.215
286.813
297.333
307.694
317.826
327.693
337.258
346.504
355.463
364.171
372.679
381.064
389.349
397.525
405.582
413.478
421.168
428.601
435.688
442.324
448.428
453.913
458.695
462.69
465.769
467.811
468.718
468.391
466.783
463.873
459.645
454.105
447.297
439.284
430.172
420.101
409.174
397.492
385.157
372.267
358.955
345.344
331.529
317.593
303.601
289.606
275.67
261.844
248.149
234.589
221.15
207.796
194.519
181.323
168.207
155.18
142.236
129.375
116.618
103.998
91.544
79.285
67.245
55.445
43.921
32.715
21.87
11.433
1.438
-8.092
-17.133
-25.666
-33.68
-41.164
-48.118
-54.552
-60.474
-65.89
-70.81
-75.241
-79.199
-82.702
-85.768
-88.42
-90.675
-92.553
-94.076
-95.265
-96.137
-96.714
-97.013
-97.05
-96.846
-96.418
-95.786
-94.97
-93.987
-92.856
-91.596
-90.223
-88.754
-87.205
-85.592
-83.927
-82.225
-80.497
-78.756
-77.012
-75.273
-73.549
-71.847
-70.172
-68.531
-66.926
-65.361
-63.839
-62.361
-60.929
-59.543
-58.204
-56.911
-55.665
-54.464
-53.309
-52.197
-51.129
-50.104
-49.12
-48.177
-47.275
-46.413
-45.588
-44.802
-44.053
-43.339
-42.661
-42.016
-41.405
-40.825
-40.277
-39.76
-39.274
-38.817
-38.39
-37.994
-37.627
-37.291
-36.986
-36.713
-36.472
-36.264
-36.09
-35.95
-35.844
-35.774
-35.738
-35.736
-35.768
-35.833
-35.928
-36.052
-36.203
-36.379
-36.577
-36.794
-37.027
-37.275
-37.533
-37.799
-38.071
-38.344
-38.617
-38.886
-39.149
-39.404
-39.647
-39.876
-40.089
-40.284
-40.458
-40.609
-40.735
-40.834
-40.905
-40.945
-40.952
-40.926
-40.866
-40.77
-40.638
-40.47
-40.265
-40.025
-39.749
-39.438
-39.094
-38.717
-38.31
-37.872
-37.407
-36.915
-36.399
-35.861
-35.302
-34.725
-34.131
-33.522
-32.9
-32.267
-31.624
-30.974
-30.316
-29.653
-28.987
-28.318
-27.648
-26.977
-26.308
-25.642
-24.98
-24.323
-23.673
-23.03
-22.398
-21.777
-21.168
-20.574
-19.996
-19.437
-18.896
-18.378
-17.882
-17.412
-16.967
-16.551
-16.163
-15.806
-15.48
-15.187
-14.927
-14.702
-14.512
-14.359
-14.243
-14.164
-14.125
-14.126
-14.167
-14.249
-14.373
-14.538
-14.746
-14.996
-15.287
-15.619
-15.992
-16.403
-16.851
-17.336
-17.853
-18.401
-18.977
-19.579
-20.202
-20.844
-21.502
-22.173
-22.853
-23.542
-24.235
-24.93
-25.626
-26.32
-27.011
-27.696
-28.374
-29.044
-29.704
-30.353
-30.99
-31.613
-32.222
-32.817
-33.395
-33.958
-34.503
-35.032
-35.543
-36.038
-36.516
-36.979
-37.427
-37.863
-38.288
-38.703
-39.112
-39.517
-39.918
-40.319
-40.721
-41.125
-41.535
-41.95
-42.371
-42.801
-43.239
-43.687
-44.144
-44.61
-45.085
-45.569
-46.061
-46.562
-47.07
-47.585
-48.107
-48.635
-49.171
-49.713
-50.261
-50.816
-51.376
-51.942
-52.513
-53.088
-53.666
-54.246
-54.828
-55.411
-55.993
-56.575
-57.155
-57.734
-58.309
-58.883
-59.452
-60.018
-60.58
-61.137
-61.689
-62.238
-62.783
-63.324
-63.86
-64.392
-64.919
-65.439
-65.952
-66.455
-66.945
-67.421
-67.879
-68.316
-68.728
-69.112
-69.465
-69.783
-70.064
-70.301
-70.492
-70.632
-70.715
-70.739
-70.696
-70.581
-70.389
-70.113
-69.749
-69.293
-68.74
-68.086
-67.327
-66.458
-65.478
-64.388
-63.181
-61.856
-60.41
-58.839
-57.15
-55.352
-53.449
-51.448
-49.357
-47.181
-44.935
-42.632
-40.272
-37.859
-35.394
-32.878
-30.328
-27.761
-25.194
-22.646
-20.123
-17.626
-15.171
-12.77
-10.426
-8.143
-5.914
-3.726
-1.609
0.41
2.308
4.059
5.661
7.117
8.419
9.568
10.554
11.366
12.015
12.506
12.824
12.952
12.858
12.506
11.926
11.153
10.215
9.154
7.987
6.74
5.465
4.214
3.033
1.969
1.046
0.293
-0.232
-0.472
-0.355
0.184
1.13
2.445
4.099
6.034
8.212
10.591
13.052
15.467
17.702
19.605
21.051
21.944
22.146
21.499
19.963
17.621
14.739
11.74
9
6.799
5.354
4.901
5.403
6.499
7.676
8.251
7.689
5.846
2.816
-1.252
-5.535
-8.574
-8.953
-5.209
3.81
18.631
39.692
67.553
101.785
141.119
184.184
229.357
275.644
322.103
366.528
406.273
437.336
455.811
460.683
449.613
423.165
384.737
331.949
265.091
180.679
68.887
-67.895
-221.936
-376.485
-501.057
-576.438
-596.005
-564.734
-505.025
-436.613
-369.629
-308.6
-249.486
-189.271
-130.836
-79.035
-39.254
-13.757
-1.132
2.12
0.226
-3.74
-7.086
-7.471
-3.82
4.225
16.317
31.084
46.989
62.7
76.695
87.918
96.021
100.927
102.98
102.86
101.222
98.767
96.303
94.373
93.264
93.164
94.074
95.951
98.8
102.55
107.086
112.319
118.152
124.491
131.266
138.366
145.648
152.973
160.187
167.167
173.839
180.146
186.055
191.554
196.638
201.321
205.638
209.632
213.35
216.844
220.159
223.355
226.502
229.671
232.943
236.379
240.026
243.922
248.097
252.578
257.387
262.538
268.034
273.882
280.092
286.677
293.652
301.027
308.794
316.948
325.474
334.355
343.572
353.097
362.888
372.913
383.138
393.535
404.083
414.749
425.501
436.306
447.128
457.939
468.729
479.488
490.21
500.909
511.598
522.303
533.069
543.914
554.845
565.861
576.938
588.057
599.193
610.295
621.31
632.172
642.784
653.046
662.848
672.04
680.485
688.041
694.549
699.892
703.976
706.719
708.075
708.008
706.5
703.568
699.249
693.59
686.679
678.616
669.525
659.575
648.921
637.715
626.124
614.281
602.301
590.292
578.336
566.495
554.832
543.385
532.182
521.251
510.596
500.209
490.074
480.141
470.375
460.749
451.228
441.796
432.449
423.186
414.025
404.99
396.095
387.357
378.793
370.411
362.22
354.223
346.414
338.793
331.367
324.139
317.125
310.326
303.739
297.356
291.161
285.149
279.321
273.671
268.188
262.864
257.703
252.728
247.987
243.512
239.306
235.348
231.595
228.008
224.54
221.132
217.709
214.171
210.421
206.386
202.008
197.231
191.982
186.161
179.645
172.34
164.193
155.183
145.316
134.602
123.072
110.785
97.839
84.365
70.476
56.256
41.772
27.088
12.287
-2.52
-17.208
-31.678
-45.855
-59.677
-73.093
-86.05
-98.514
-110.481
-121.983
-133.073
-143.782
-154.113
-164.056
-173.592
-182.719
-191.449
-199.797
-207.76
-215.339
-222.541
-229.385
-235.909
-242.127
-248.03
-253.585
-258.745
-263.475
-267.759
-271.584
-274.936
-277.804
-280.172
-282.038
-283.419
-284.312
-284.698
-284.538
-283.764
-282.343
-280.279
-277.593
-274.331
-270.548
-266.301
-261.671
-256.761
-251.66
-246.451
-241.199
-235.942
-230.747
-225.7
-220.905
-216.494
-212.564
-209.171
-206.355
-204.133
-202.495
-201.416
-200.829
-200.627
-200.724
-201.054
-201.563
-202.225
-202.993
-203.8
-204.573
-205.219
-205.666
-205.87
-205.786
-205.383
-204.65
-203.592
-202.247
-200.687
-198.961
-197.098
-195.117
-193.015
-190.798
-188.486
-186.091
-183.625
-181.1
-178.517
-175.88
-173.197
-170.463
-167.662
-164.765
-161.725
-158.511
-155.109
-151.507
-147.703
-143.692
-139.462
-135.017
-130.374
-125.55
-120.563
-115.436
-110.189
-104.858
-99.497
-94.162
-88.905
-83.771
-78.792
-74.006
-69.458
-65.193
-61.255
-57.666
-54.424
-51.528
-48.973
-46.742
-44.807
-43.107
-41.551
-40.066
-38.599
-37.114
-35.586
-33.981
-32.252
-30.365
-28.318
-26.151
-23.935
-21.747
-19.674
-17.832
-16.368
-15.494
-15.448
-16.431
-18.61
-22.133
-27.139
-33.786
-42.238
-52.604
-64.926
-79.186
-95.32
-113.251
-132.872
-154.021
-176.471
-199.915
-224.026
-248.515
-273.107
-297.532
-321.5
-344.683
-366.761
-387.487
-406.682
-424.225
-440.025
-454.008
-466.137
-476.438
-485.004
-491.992
-497.562
-501.852
-505.005
-507.184
-508.586
-509.45
-510
-510.395
-510.755
-511.171
-511.717
-512.466
-513.461
-514.696
-516.132
-517.709
-519.374
-521.089
-522.804
-524.451
-525.94
-527.154
-528.004
-528.434
-528.409
-527.903
-526.899
-525.381
-523.354
-520.846
-517.895
-514.535
-510.795
-506.695
-502.266
-497.549
-492.591
-487.446
-482.156
-476.747
-471.245
-465.67
-460.04
-454.37
-448.667
-442.926
-437.15
-431.344
-425.512
-419.665
-413.81
-407.95
-402.091
-396.238
-390.4
-384.584
-378.802
-373.063
-367.377
-361.755
-356.21
-350.752
-345.395
-340.147
-335.019
-330.021
-325.161
-320.45
-315.894
-311.5
-307.273
-303.212
-299.313
-295.574
-291.991
-288.564
-285.296
-282.186
-279.237
-276.449
-273.823
-271.355
-269.032
-266.828
-264.714
-262.662
-260.646
-258.648
-256.654
-254.643
-252.604
-250.517
-248.36
-246.117
-243.758
-241.253
-238.592
-235.775
-232.835
-229.833
-226.834
-223.9
-221.1
-218.473
-216.055
-213.906
-212.068
-210.627
-209.674
-209.272
-209.531
-210.521
-212.234
-214.506
-216.897
-218.837
-219.797
-219.261
-216.846
-212.426
-205.797
-197.541
-189.342
-182.459
-178.345
-177.119
-176.258
-175.827
-177.5
-183.917
-200.471
-223.641
-242.05
-243.761
-214.485
-153.617
-73.965
12.616
91.979
158.722
217.26
267.105
307.159
334.907
343.783
330.682
294.998
235.804
156.095
62.514
-39.445
-145.925
-257.915
-379.785
-510.211
-637.997
-741.968
-800.985
-804.516
-757.73
-681.251
-596.141
-515.636
-444.281
-377.308
-311.643
-249.842
-195.986
-155.205
-129.585
-117.085
-114.265
-117.245
-122.403
-126.411
-126.997
-123.094
-114.385
-101.51
-85.737
-68.383
-51.062
-35.703
-23.454
-14.718
-9.533
-7.395
-7.659
-9.779
-12.993
-16.362
-19.254
-21.306
-22.327
-22.383
-21.53
-19.743
-17.086
-13.667
-9.579
-4.935
0.167
5.67
11.484
17.489
23.562
29.544
35.287
40.695
45.705
50.285
54.43
58.131
61.394
64.249
66.748
68.946
70.905
72.677
74.316
75.887
77.463
79.127
80.957
83.011
85.331
87.953
90.904
94.208
97.882
101.937
106.374
111.205
116.447
122.113
128.211
134.738
141.682
149.026
156.748
164.818
173.196
181.842
190.721
199.806
209.081
218.524
228.106
237.791
247.528
257.284
267.041
276.78
286.487
296.162
305.812
315.471
325.205
335.056
345.045
355.17
365.395
375.688
386.02
396.357
406.671
416.908
426.987
436.832
446.37
455.497
464.102
472.027
479.059
485.031
489.811
493.298
495.438
496.177
495.47
493.286
489.603
484.419
477.756
469.634
460.072
449.122
436.854
423.394
408.94
393.655
377.682
361.154
344.177
326.862
309.328
291.688
274.048
256.53
239.255
222.348
205.939
190.137
175.041
160.709
147.145
134.356
122.353
111.136
100.711
91.071
82.193
74.047
66.596
59.773
53.492
47.664
42.206
37.034
32.069
27.252
22.548
17.932
13.391
8.918
4.509
0.165
-4.105
-8.278
-12.329
-16.213
-19.867
-23.243
-26.298
-28.994
-31.298
-33.187
-34.645
-35.673
-36.287
-36.502
-36.335
-35.804
-34.933
-33.75
-32.291
-30.594
-28.705
-26.664
-24.502
-22.25
-19.935
-17.579
-15.203
-12.822
-10.441
-8.071
-5.723
-3.407
-1.137
1.079
3.232
5.316
7.323
9.245
11.073
12.8
14.416
15.913
17.284
18.518
19.609
20.548
21.334
21.962
22.432
22.744
22.898
22.896
22.742
22.439
21.991
21.402
20.677
19.821
18.842
17.745
16.54
15.234
13.836
12.356
10.804
9.19
7.525
5.82
4.087
2.338
0.585
-1.161
-2.888
-4.585
-6.24
-7.844
-9.388
-10.863
-12.26
-13.575
-14.799
-15.928
-16.958
-17.886
-18.708
-19.423
-20.031
-20.53
-20.921
-21.205
-21.386
-21.465
-21.448
-21.337
-21.14
-20.861
-20.508
-20.088
-19.609
-19.08
-18.51
-17.907
-17.282
-16.642
-15.998
-15.359
-14.733
-14.128
-13.552
-13.012
-12.516
-12.068
-11.675
-11.341
-11.07
-10.866
-10.732
-10.67
-10.681
-10.767
-10.927
-11.161
-11.468
-11.846
-12.292
-12.803
-13.375
-14.003
-14.683
-15.408
-16.173
-16.97
-17.794
-18.636
-19.491
-20.351
-21.209
-22.058
-22.892
-23.704
-24.489
-25.242
-25.958
-26.632
-27.261
-27.841
-28.37
-28.844
-29.263
-29.623
-29.925
-30.168
-30.351
-30.475
-30.541
-30.55
-30.503
-30.405
-30.256
-30.061
-29.823
-29.547
-29.235
-28.894
-28.528
-28.142
-27.741
-27.33
-26.914
-26.498
-26.085
-25.681
-25.288
-24.91
-24.549
-24.209
-23.891
-23.597
-23.328
-23.086
-22.87
-22.683
-22.524
-22.393
-22.29
-22.215
-22.166
-22.143
-22.143
-22.167
-22.211
-22.274
-22.354
-22.448
-22.553
-22.668
-22.79
-22.915
-23.042
-23.168
-23.29
-23.406
-23.514
-23.614
-23.704
-23.784
-23.852
-23.911
-23.959
-23.998
-24.029
-24.052
-24.07
-24.083
-24.093
-24.1
-24.108
-24.118
-24.13
-24.148
-24.171
-24.202
-24.243
-24.294
-24.356
-24.43
-24.517
-24.617
-24.73
-24.855
-24.993
-25.142
-25.302
-25.47
-25.645
-25.824
-26.004
-26.182
-26.353
-26.513
-26.658
-26.782
-26.881
-26.948
-26.979
-26.97
-26.914
-26.807
-26.643
-26.419
-26.13
-25.771
-25.341
-24.836
-24.253
-23.592
-22.851
-22.031
-21.134
-20.16
-19.113
-17.997
-16.818
-15.581
-14.294
-12.964
-11.6
-10.209
-8.803
-7.388
-5.975
-4.571
-3.188
-1.837
-0.53
0.721
1.904
3.006
4.019
4.928
5.728
6.416
6.989
7.444
7.776
7.972
8.025
7.932
7.692
7.306
6.783
6.132
5.376
4.552
3.69
2.819
1.959
1.115
0.298
-0.474
-1.178
-1.777
-2.244
-2.563
-2.715
-2.682
-2.461
-2.071
-1.575
-1.061
-0.61
-0.275
-0.075
-0.035
-0.2
-0.625
-1.387
-2.57
-4.217
-6.412
-9.277
-12.797
-16.847
-21.139
-25.173
-28.556
-31.027
-32.236
-31.917
-30.102
-27.038
-23.45
-20.299
-17.966
-16.552
-16.181
-16.678
-17.673
-18.34
-16.928
-11.661
-1.733
13.293
33.619
59.24
90.503
127.022
167.18
209.394
252.614
295.935
338.613
379.166
414.578
442.12
459.885
465.584
456.654
430.379
384.07
318.327
238.049
147.841
50.532
-55.239
-173.22
-300.642
-425.799
-528.509
-588.97
-598.745
-563.299
-500.789
-430.304
-363.129
-302.115
-242.669
-180.935
-118.03
-58.341
-7.77
30.346
56.283
72.014
80.048
81.933
78.943
73.052
66.392
61.08
58.289
57.965
59.748
63.373
68.427
74.3
80.101
84.641
87.333
88.284
87.794
86.346
84.372
82.177
80.223
79.101
79.139
80.431
82.938
86.447
90.789
95.867
101.524
107.582
113.879
120.254
126.581
132.758
138.696
144.324
149.584
154.433
158.853
162.838
166.407
169.606
172.482
175.083
177.472
179.709
181.875
184.066
186.366
188.852
191.581
194.581
197.878
201.491
205.421
209.68
214.271
219.183
224.426
230.002
235.888
242.051
248.428
254.933
261.509
268.108
274.686
281.239
287.77
294.304
300.903
307.608
314.441
321.426
328.549
335.804
343.229
350.873
358.81
367.15
375.975
385.363
395.413
406.169
417.635
429.768
442.451
455.571
469.049
482.8
496.762
510.868
524.996
539.01
552.766
566.072
578.734
590.541
601.231
610.581
618.435
624.694
629.34
632.376
633.781
633.546
631.675
628.18
623.117
616.557
608.567
599.256
588.768
577.287
565.055
552.319
539.267
526.044
512.75
499.462
486.267
473.246
460.451
447.926
435.708
423.83
412.34
401.276
390.639
380.404
370.514
360.893
351.503
342.329
333.369
324.635
316.143
307.914
299.993
292.438
285.29
278.582
272.326
266.526
261.194
256.346
251.993
248.143
244.789
241.92
239.521
237.584
236.084
234.99
234.252
233.803
233.588
233.567
233.706
233.983
234.39
234.92
235.599
236.476
237.591
238.975
240.628
242.519
244.617
246.89
249.307
251.84
254.452
257.09
259.694
262.198
264.51
266.514
268.045
268.885
268.826
267.674
265.28
261.551
256.412
249.799
241.662
231.961
220.667
207.768
193.246
177.077
159.276
139.89
119.042
96.933
73.783
49.827
25.266
0.261
-25.036
-50.475
-75.912
-101.206
-126.213
-150.787
-174.748
-197.88
-219.98
-240.862
-260.414
-278.598
-295.413
-310.89
-325.049
-337.901
-349.466
-359.769
-368.837
-376.708
-383.427
-389.049
-393.686
-397.495
-400.652
-403.343
-405.705
-407.826
-409.769
-411.569
-413.26
-414.872
-416.421
-417.918
-419.376
-420.809
-422.231
-423.656
-425.062
-426.396
-427.591
-428.564
-429.256
-429.641
-429.703
-429.441
-428.866
-427.992
-426.848
-425.47
-423.889
-422.127
-420.204
-418.133
-415.937
-413.652
-411.317
-408.977
-406.668
-404.41
-402.223
-400.117
-398.098
-396.165
-394.31
-392.518
-390.777
-389.08
-387.419
-385.793
-384.194
-382.613
-381.043
-379.471
-377.889
-376.288
-374.66
-372.995
-371.286
-369.525
-367.707
-365.829
-363.885
-361.869
-359.774
-357.596
-355.328
-352.964
-350.501
-347.934
-345.259
-342.473
-339.576
-336.568
-333.449
-330.22
-326.883
-323.44
-319.896
-316.251
-312.51
-308.677
-304.754
-300.745
-296.653
-292.483
-288.239
-283.925
-279.545
-275.105
-270.611
-266.066
-261.476
-256.848
-252.186
-247.496
-242.785
-238.056
-233.317
-228.573
-223.829
-219.09
-214.36
-209.644
-204.946
-200.266
-195.609
-190.975
-186.367
-181.785
-177.231
-172.706
-168.21
-163.746
-159.312
-154.912
-150.544
-146.211
-141.913
-137.65
-133.423
-129.232
-125.078
-120.959
-116.877
-112.83
-108.819
-104.842
-100.898
-96.986
-93.105
-89.252
-85.427
-81.627
-77.852
-74.101
-70.373
-66.668
-62.987
-59.328
-55.692
-52.08
-48.491
-44.925
-41.382
-37.859
-34.357
-30.874
-27.408
-23.954
-20.511
-17.075
-13.642
-10.209
-6.772
-3.327
0.129
3.598
7.082
10.582
14.103
17.648
21.22
24.823
28.46
32.137
35.857
39.627
43.453
47.337
51.284
55.3
59.392
63.573
67.85
72.223
76.69
81.242
85.869
90.556
95.278
100.002
104.693
109.318
113.85
118.274
122.566
126.7
130.643
134.358
137.821
141.032
143.994
146.719
149.232
151.568
153.786
155.974
158.205
160.537
163.011
165.639
168.441
171.439
174.653
178.101
181.766
185.587
189.495
193.399
197.18
200.695
203.75
206.109
207.562
207.929
207.053
204.819
201.098
195.768
188.728
179.891
169.225
156.753
142.519
126.603
109.134
90.285
70.299
49.478
28.091
6.4
-15.353
-36.946
-58.13
-78.668
-98.35
-116.977
-134.402
-150.517
-165.232
-178.493
-190.292
-200.664
-209.705
-217.557
-224.342
-230.188
-235.225
-239.581
-243.419
-246.888
-250.109
-253.199
-256.239
-259.294
-262.425
-265.67
-269.041
-272.532
-276.101
-279.688
-283.244
-286.709
-290.014
-293.078
-295.783
-298.034
-299.762
-300.907
-301.441
-301.339
-300.574
-299.129
-296.999
-294.182
-290.701
-286.585
-281.85
-276.531
-270.695
-264.448
-257.939
-251.308
-244.653
-238.037
-231.517
-225.167
-219.079
-213.358
-208.099
-203.367
-199.25
-195.895
-193.352
-191.522
-190.13
-188.647
-186.534
-183.439
-178.972
-172.691
-164.555
-154.888
-144.435
-134.507
-126.167
-119.895
-116.242
-115.731
-118.001
-121.996
-125.827
-126.647
-122.188
-111.096
-91.804
-62.708
-23.34
25.85
83.103
145.173
209.209
272.848
332.858
385.197
426.141
452.262
461.09
451.526
422.326
372.46
302.454
214.736
112.982
1.891
-113.26
-227.155
-333.775
-426.933
-501.482
-554.203
-583.578
-589.606
-574.124
-540.377
-492.952
-437.635
-380.356
-326.064
-279.018
-242.54
-218.081
-205.672
-204.128
-210.809
-222.567
-236.496
-249.479
-258.92
-263.529
-262.765
-256.881
-247.047
-234.612
-220.97
-207.828
-196.436
-187.345
-180.836
-176.738
-174.575
-173.92
-174.228
-174.847
-175.386
-175.65
-175.514
-174.995
-174.1
-172.782
-171.043
-168.889
-166.296
-163.248
-159.73
-155.737
-151.3
-146.463
-141.268
-135.754
-129.939
-123.842
-117.484
-110.889
-104.088
-97.117
-90.018
-82.857
-75.682
-68.517
-61.374
-54.233
-47.071
-39.867
-32.59
-25.202
-17.673
-9.976
-2.092
5.99
14.289
22.835
31.663
40.817
50.327
60.206
70.465
81.099
92.097
103.439
115.092
127.017
139.178
151.549
164.11
176.847
189.744
202.781
215.928
229.168
242.496
255.914
269.426
283.039
296.761
310.61
324.619
338.81
353.191
367.754
382.472
397.308
412.21
427.123
441.994
456.746
471.286
485.509
499.297
512.539
525.14
536.992
547.971
557.972
566.906
574.704
581.328
586.752
590.974
593.992
595.805
596.433
595.912
594.297
591.669
588.092
583.606
578.263
572.136
565.29
557.794
549.704
541.055
531.874
522.19
512.05
501.515
490.657
479.542
468.224
456.744
445.16
433.571
422.077
410.765
399.714
389
378.693
368.873
359.624
351.002
343.022
335.673
328.913
322.685
316.944
311.638
306.683
301.958
297.309
292.575
287.596
282.201
276.223
269.505
261.881
253.227
243.471
232.557
220.465
207.191
192.716
177.031
160.183
142.245
123.339
103.635
83.308
62.577
41.671
20.795
0.152
-20.085
-39.795
-58.864
-77.188
-94.682
-111.237
-126.741
-141.138
-154.388
-166.491
-177.506
-187.514
-196.639
-205.038
-212.836
-220.142
-227.041
-233.584
-239.813
-245.774
-251.502
-257.043
-262.465
-267.804
-273.089
-278.337
-283.522
-288.598
-293.494
-298.11
-302.365
-306.206
-309.592
-312.504
-314.938
-316.886
-318.351
-319.34
-319.841
-319.852
-319.371
-318.396
-316.945
-315.045
-312.736
-310.072
-307.101
-303.862
-300.387
-296.699
-292.816
-288.754
-284.525
-280.132
-275.589
-270.909
-266.108
-261.205
-256.215
-251.149
-246.015
-240.821
-235.57
-230.267
-224.918
-219.526
-214.098
-208.642
-203.163
-197.672
-192.175
-186.678
-181.184
-175.697
-170.219
-164.752
-159.297
-153.854
-148.426
-143.015
-137.623
-132.252
-126.906
-121.586
-116.295
-111.036
-105.81
-100.618
-95.463
-90.346
-85.266
-80.226
-75.225
-70.266
-65.348
-60.475
-55.646
-50.863
-46.128
-41.443
-36.808
-32.226
-27.695
-23.219
-18.797
-14.431
-10.12
-5.866
-1.669
2.472
6.558
10.592
14.577
18.517
22.415
26.277
30.107
33.908
37.686
41.441
45.175
48.89
52.586
56.267
59.934
63.59
67.239
70.884
74.53
78.181
81.841
85.514
89.199
92.896
96.604
100.323
104.059
107.811
111.573
115.338
119.093
122.823
126.508
130.121
133.625
136.982
140.155
143.11
145.822
148.27
150.436
152.303
153.85
155.071
155.978
156.587
156.924
157.017
156.887
156.579
156.159
155.689
155.224
154.812
154.476
154.235
154.097
154.058
154.1
154.175
154.202
154.08
153.692
152.928
151.693
149.862
147.285
143.814
139.315
133.673
126.81
118.655
109.148
98.263
86.008
72.444
57.683
41.871
25.187
7.806
-10.11
-28.364
-46.73
-64.978
-82.873
-100.208
-116.812
-132.512
-147.133
-160.536
-172.62
-183.335
-192.683
-200.701
-207.456
-213.017
-217.45
-220.854
-223.348
-225.069
-226.164
-226.761
-226.958
-226.865
-226.599
-226.26
-225.925
-225.641
-225.418
-225.255
-225.138
-225.051
-224.978
-224.886
-224.732
-224.465
-224.024
-223.366
-222.469
-221.306
-219.852
-218.086
-215.997
-213.591
-210.893
-207.927
-204.718
-201.292
-197.676
-193.905
-190.017
-186.053
-182.056
-178.061
-174.092
-170.172
-166.324
-162.562
-158.9
-155.347
-151.899
-148.559
-145.329
-142.211
-139.205
-136.31
-133.519
-130.827
-128.226
-125.71
-123.272
-120.907
-118.607
-116.367
-114.18
-112.04
-109.941
-107.877
-105.839
-103.819
-101.805
-99.788
-97.759
-95.708
-93.625
-91.501
-89.325
-87.091
-84.79
-82.415
-79.958
-77.413
-74.772
-72.03
-69.181
-66.22
-63.144
-59.948
-56.63
-53.188
-49.62
-45.926
-42.108
-38.167
-34.104
-29.925
-25.634
-21.24
-16.748
-12.169
-7.51
-2.783
2
6.83
11.697
16.592
21.503
26.419
31.328
36.218
41.08
45.901
50.67
55.372
59.993
64.522
68.955
73.285
77.505
81.604
85.564
89.377
93.038
96.544
99.892
103.082
106.112
109
111.778
114.483
117.151
119.805
122.456
125.126
127.837
130.621
133.513
136.528
139.664
142.922
146.304
149.799
153.382
156.989
160.503
163.803
166.78
169.336
171.403
172.924
173.825
174.01
173.389
171.887
169.461
166.145
161.955
156.888
151.09
144.818
138.487
132.756
128.23
125.212
123.974
124.707
127.284
131.684
137.661
144.289
150.72
156.546
161.559
166.091
171.018
176.717
183.711
193.43
207.405
227.118
253.651
286.961
326.249
371.043
420.702
473.517
526.533
575.577
616.649
646.163
660.458
655.808
628.181
576.273
503.346
413.932
310.864
192.109
54.231
-99.191
-254.404
-386.105
-471.352
-502.685
-483.669
-431.143
-362.052
-279.564
-188.632
-95.397
-6.232
62.949
105.316
127.207
135.996
143.363
154.464
164.246
169.806
169.848
166.511
165.518
169.268
177.69
189.778
203.45
217.606
231.43
243.307
252.219
257.823
260.133
259.76
257.362
253.334
248.248
242.908
237.845
233.379
229.649
226.518
223.894
221.761
220.027
218.57
217.281
216.031
214.724
213.312
211.698
209.773
207.419
204.487
200.878
196.54
191.438
185.573
178.96
171.617
163.585
154.93
145.718
136.025
125.928
115.494
104.808
93.964
83.059
72.198
61.471
50.951
40.704
30.788
21.253
12.147
3.513
-4.619
-12.209
-19.212
-25.591
-31.309
-36.338
-40.663
-44.274
-47.169
-49.36
-50.866
-51.707
-51.902
-51.468
-50.412
-48.751
-46.505
-43.695
-40.359
-36.531
-32.235
-27.505
-22.367
-16.829
-10.896
-4.55
2.253
9.542
17.336
25.654
34.477
43.784
53.542
63.697
74.198
84.991
96.008
107.181
118.436
129.659
140.731
151.512
161.815
171.461
180.276
188.069
194.694
200.037
204.004
206.541
207.602
207.131
205.09
201.463
196.242
189.465
181.18
171.435
160.344
148.045
134.696
120.509
105.668
90.323
74.617
58.676
42.627
26.632
10.853
-4.59
-19.572
-33.991
-47.75
-60.715
-72.81
-84
-94.283
-103.709
-112.326
-120.15
-127.211
-133.552
-139.224
-144.317
-148.933
-153.131
-156.969
-160.508
-163.811
-166.978
-170.081
-173.156
-176.213
-179.24
-182.222
-185.162
-188.054
-190.866
-193.562
-196.084
-198.369
-200.388
-202.119
-203.537
-204.62
-205.334
-205.652
-205.575
-205.115
-204.288
-203.11
-201.596
-199.759
-197.633
-195.258
-192.675
-189.93
-187.054
-184.071
-181.008
-177.885
-174.724
-171.541
-168.347
-165.143
-161.937
-158.736
-155.548
-152.381
-149.238
-146.118
-143.022
-139.95
-136.901
-133.879
-130.885
-127.922
-124.995
-122.107
-119.266
-116.478
-113.747
-111.078
-108.473
-105.934
-103.462
-101.06
-98.727
-96.464
-94.272
-92.152
-90.104
-88.13
-86.23
-84.404
-82.652
-80.973
-79.366
-77.83
-76.364
-74.966
-73.635
-72.37
-71.17
-70.031
-68.952
-67.932
-66.966
-66.052
-65.186
-64.365
-63.584
-62.841
-62.132
-61.452
-60.798
-60.168
-59.556
-58.962
-58.38
-57.809
-57.245
-56.686
-56.13
-55.575
-55.019
-54.46
-53.898
-53.333
-52.763
-52.191
-51.616
-51.039
-50.463
-49.888
-49.318
-48.753
-48.197
-47.652
-47.122
-46.609
-46.117
-45.65
-45.21
-44.801
-44.426
-44.089
-43.792
-43.539
-43.333
-43.176
-43.071
-43.021
-43.028
-43.093
-43.218
-43.405
-43.653
-43.963
-44.335
-44.768
-45.259
-45.808
-46.412
-47.067
-47.77
-48.517
-49.302
-50.123
-50.973
-51.846
-52.739
-53.644
-54.557
-55.471
-56.382
-57.284
-58.172
-59.04
-59.885
-60.7
-61.481
-62.225
-62.926
-63.58
-64.185
-64.736
-65.23
-65.665
-66.039
-66.349
-66.595
-66.776
-66.892
-66.944
-66.934
-66.863
-66.735
-66.552
-66.319
-66.039
-65.718
-65.361
-64.971
-64.556
-64.119
-63.666
-63.202
-62.732
-62.26
-61.791
-61.329
-60.879
-60.443
-60.026
-59.631
-59.261
-58.92
-58.609
-58.332
-58.091
-57.887
-57.721
-57.595
-57.508
-57.461
-57.453
-57.482
-57.546
-57.642
-57.768
-57.92
-58.094
-58.286
-58.491
-58.705
-58.923
-59.141
-59.355
-59.56
-59.754
-59.932
-60.092
-60.232
-60.348
-60.44
-60.506
-60.544
-60.554
-60.535
-60.486
-60.409
-60.303
-60.168
-60.007
-59.82
-59.609
-59.377
-59.126
-58.859
-58.58
-58.293
-58.002
-57.713
-57.429
-57.155
-56.898
-56.661
-56.45
-56.269
-56.123
-56.015
-55.948
-55.926
-55.951
-56.023
-56.145
-56.317
-56.538
-56.808
-57.126
-57.489
-57.895
-58.343
-58.827
-59.345
-59.893
-60.466
-61.059
-61.667
-62.284
-62.904
-63.522
-64.13
-64.721
-65.288
-65.824
-66.322
-66.774
-67.174
-67.515
-67.79
-67.994
-68.12
-68.165
-68.124
-67.993
-67.771
-67.456
-67.048
-66.547
-65.956
-65.278
-64.518
-63.681
-62.773
-61.8
-60.772
-59.696
-58.58
-57.434
-56.267
-55.089
-53.911
-52.747
-51.608
-50.507
-49.457
-48.471
-47.561
-46.739
-46.018
-45.41
-44.926
-44.575
-44.365
-44.308
-44.416
-44.696
-45.149
-45.771
-46.559
-47.502
-48.591
-49.81
-51.135
-52.54
-54.005
-55.505
-57.023
-58.543
-60.042
-61.496
-62.878
-64.166
-65.358
-66.455
-67.461
-68.385
-69.246
-70.078
-70.944
-71.902
-73.009
-74.325
-75.889
-77.755
-79.967
-82.548
-85.529
-88.935
-92.772
-97.056
-101.806
-106.987
-112.583
-118.571
-124.765
-130.913
-136.666
-141.485
-144.907
-146.564
-145.996
-142.885
-137.329
-129.646
-120.541
-111.168
-102.405
-95.036
-90.049
-87.897
-88.28
-90.389
-92.625
-92.837
-89.229
-79.828
-62.272
-35.076
2.144
48.735
102.744
161.448
221.78
279.5
329.226
365.762
384.581
382.243
356.558
306.266
231.524
134.849
20.969
-103.843
-232.367
-357.306
-471.352
-567.317
-639.346
-683.794
-699.128
-686.393
-648.952
-591.423
-519.785
-441.139
-362.29
-289.234
-227.213
-179.259
-146.151
-127.451
-121.195
-124.107
-132.71
-143.321
-152.037
-156.432
-155.54
-149.066
-137.71
-122.817
-105.786
-88.374
-72.635
-59.774
-50.238
-44.137
-41.057
-40.472
-41.936
-44.782
-48.192
-51.634
-54.813
-57.561
-59.905
-61.819
-63.186
-63.983
-64.24
-63.982
-63.253
-62.08
-60.456
-58.409
-56.006
-53.305
-50.384
-47.311
-44.13
-40.889
-37.643
-34.453
-31.395
-28.521
-25.855
-23.398
-21.129
-19.022
-17.053
-15.181
-13.355
-11.521
-9.628
-7.631
-5.502
-3.203
-0.695
2.065
5.126
8.526
12.284
16.417
20.936
25.853
31.181
36.917
43.049
49.563
56.445
63.676
71.236
79.091
87.196
95.517
104.025
112.697
121.524
130.49
139.576
148.771
158.049
167.388
176.773
186.174
195.568
204.948
214.315
223.692
233.111
242.573
252.058
261.535
270.94
280.207
289.256
297.982
306.3
314.138
321.428
328.123
334.173
339.5
344.021
347.634
350.227
351.731
352.103
351.313
349.385
346.371
342.356
337.47
331.818
325.47
318.484
310.898
302.745
294.087
284.984
275.492
265.688
255.629
245.367
234.95
224.38
213.615
202.575
191.156
179.291
166.969
154.204
141.034
127.515
113.704
99.686
85.576
71.468
57.438
43.55
29.862
16.465
3.493
-8.888
-20.524
-31.3
-41.148
-50.029
-57.917
-64.821
-70.777
-75.867
-80.212
-83.911
-87.029
-89.614
-91.709
-93.378
-94.713
-95.824
-96.797
-97.697
-98.571
-99.456
-100.386
-101.37
-102.387
-103.382
-104.279
-105.023
-105.59
-105.971
-106.159
-106.146
-105.912
-105.439
-104.729
-103.785
-102.612
-101.214
-99.592
-97.76
-95.75
-93.605
-91.377
-89.102
-86.806
-84.506
-82.217
-79.953
-77.726
-75.54
-73.393
-71.285
-69.219
-67.199
-65.233
-63.322
-61.465
-59.655
-57.887
-56.159
-54.468
-52.813
-51.192
-49.604
-48.049
-46.528
-45.047
-43.605
-42.201
-40.836
-39.505
-38.208
-36.942
-35.704
-34.49
-33.299
-32.128
-30.975
-29.84
-28.72
-27.616
-26.527
-25.452
-24.391
-23.344
-22.31
-21.288
-20.279
-19.282
-18.296
-17.321
-16.356
-15.401
-14.454
-13.515
-12.582
-11.655
-10.73
-9.808
-8.887
-7.966
-7.044
-6.12
-5.194
-4.266
-3.335
-2.402
-1.466
-0.527
0.416
1.364
2.317
3.277
4.245
5.223
6.212
7.214
8.232
9.268
10.323
11.401
12.502
13.631
14.787
15.975
17.195
18.449
19.737
21.063
22.426
23.827
25.267
26.746
28.267
29.828
31.43
33.075
34.762
36.492
38.265
40.08
41.937
43.836
45.777
47.757
49.776
51.833
53.925
56.051
58.208
60.393
62.604
64.837
67.089
69.356
71.636
73.925
76.22
78.517
80.814
83.108
85.396
87.676
89.946
92.204
94.447
96.674
98.884
101.075
103.246
105.396
107.524
109.631
111.715
113.776
115.815
117.831
119.826
121.799
123.752
125.686
127.603
129.504
131.39
133.265
135.131
136.989
138.843
140.695
142.548
144.403
146.263
148.13
150.007
151.894
153.793
155.707
157.635
159.579
161.538
163.515
165.507
167.516
169.54
171.579
173.632
175.698
177.776
179.865
181.962
184.067
186.178
188.293
190.41
192.527
194.643
196.754
198.859
200.955
203.039
205.11
207.164
209.2
211.215
213.206
215.171
217.109
219.017
220.895
222.74
224.551
226.328
228.071
229.778
231.45
233.088
234.691
236.261
237.798
239.305
240.782
242.231
243.652
245.049
246.421
247.771
249.101
250.412
251.705
252.983
254.247
255.499
256.741
257.976
259.206
260.432
261.659
262.887
264.12
265.36
266.611
267.874
269.152
270.448
271.764
273.102
274.464
275.852
277.268
278.714
280.19
281.698
283.24
284.815
286.426
288.073
289.758
291.482
293.246
295.051
296.899
298.793
300.732
302.718
304.753
306.837
308.971
311.156
313.39
315.674
318.006
320.386
322.812
325.281
327.792
330.342
332.928
335.546
338.194
340.866
343.559
346.268
348.987
351.712
354.437
357.157
359.865
362.554
365.218
367.849
370.439
372.978
375.457
377.865
380.192
382.427
384.557
386.573
388.461
390.209
391.807
393.242
394.502
395.576
396.451
397.117
397.562
397.775
397.745
397.459
396.909
396.083
394.972
393.568
391.863
389.853
387.532
384.897
381.945
378.675
375.085
371.174
366.942
362.387
357.511
352.318
346.813
341.008
334.916
328.546
321.912
315.023
307.882
300.497
292.877
285.028
276.963
268.701
260.266
251.698
243.047
234.351
225.647
216.966
208.32
199.734
191.23
182.825
174.549
166.426
158.461
150.669
143.057
135.603
128.268
120.963
113.559
105.953
98.063
89.837
81.252
72.237
62.712
52.612
41.872
30.514
18.579
6.006
-7.157
-20.702
-34.293
-47.26
-58.896
-68.913
-77.115
-83.296
-87.624
-90.307
-91.839
-93.605
-96.955
-102.411
-110.145
-119.823
-130.432
-141.133
-150.578
-155.978
-154.505
-144.204
-123.815
-93.392
-54.02
-6.902
45.491
98.667
147.527
186.682
210.685
215.34
197.167
154.984
91.671
11.256
-83.561
-194.568
-326.025
-476.016
-631.359
-766.468
-854.898
-883.379
-856.443
-795.7
-724.39
-655.836
-592.771
-529.357
-462.103
-393.725
-330.61
-280.145
-245.33
-225.334
-217.762
-218.87
-225.329
-234.073
-241.375
-244.739
-243.232
-236.556
-225.338
-210.813
-194.195
-177.089
-161.536
-148.766
-139.209
-132.974
-129.651
-128.712
-129.772
-132.177
-135.07
-137.926
-140.458
-142.518
-144.192
-145.479
-146.269
-146.578
-146.469
-145.998
-145.253
-144.251
-142.959
-141.404
-139.628
-137.696
-135.707
-133.719
-131.765
-129.884
-128.107
-126.491
-125.117
-124.011
-123.171
-122.575
-122.169
-121.952
-121.931
-122.078
-122.367
-122.753
-123.184
-123.641
-124.117
-124.586
-125.026
-125.396
-125.643
-125.753
-125.719
-125.542
-125.232
-124.758
-124.088
-123.217
-122.136
-120.844
-119.336
-117.585
-115.565
-113.281
-110.738
-107.948
-104.933
-101.696
-98.255
-94.639
-90.872
-86.99
-83.026
-78.991
-74.908
-70.806
-66.716
-62.686
-58.745
-54.895
-51.133
-47.457
-43.843
-40.263
-36.661
-32.952
-29.074
-24.992
-20.681
-16.146
-11.379
-6.369
-1.107
4.411
10.169
16.121
22.213
28.378
34.501
40.44
46.009
50.979
55.166
58.432
60.65
61.726
61.563
60.06
57.136
52.72
46.746
39.17
29.975
19.177
6.867
-6.811
-21.666
-37.453
-53.965
-71.021
-88.433
-106.03
-123.644
-141.094
-158.202
-174.793
-190.654
-205.578
-219.398
-231.982
-243.269
-253.249
-261.942
-269.412
-275.717
-280.915
-285.08
-288.278
-290.575
-292.052
-292.804
-292.945
-292.639
-292.055
-291.323
-290.548
-289.793
-289.095
-288.479
-287.948
-287.485
-287.071
-286.677
-286.284
-285.879
-285.44
-284.93
-284.295
-283.45
-282.316
-280.841
-278.988
-276.736
-274.079
-271.012
-267.547
-263.714
-259.547
-255.079
-250.337
-245.342
-240.118
-234.702
-229.134
-223.464
-217.737
-211.984
-206.232
-200.504
-194.821
-189.198
-183.645
-178.162
-172.748
-167.409
-162.149
-156.977
-151.899
-146.917
-142.032
-137.246
-132.562
-127.983
-123.513
-119.152
-114.902
-110.766
-106.747
-102.849
-99.074
-95.419
-91.885
-88.468
-85.164
-81.971
-78.883
-75.896
-73.003
-70.199
-67.479
-64.837
-62.267
-59.764
-57.32
-54.929
-52.585
-50.281
-48.011
-45.767
-43.543
-41.332
-39.127
-36.921
-34.709
-32.484
-30.239
-27.97
-25.673
-23.344
-20.978
-18.575
-16.133
-13.651
-11.13
-8.57
-5.975
-3.346
-0.689
1.993
4.693
7.406
10.125
12.843
15.552
18.243
20.906
23.533
26.113
28.636
31.089
33.462
35.742
37.917
39.975
41.904
43.691
45.326
46.796
48.091
49.2
50.114
50.823
51.32
51.598
51.649
51.471
51.058
50.409
49.521
48.396
47.033
45.434
43.603
41.544
39.261
36.761
34.052
31.14
28.036
24.75
21.291
17.674
13.909
10.01
5.991
1.865
-2.353
-6.649
-11.008
-15.417
-19.861
-24.326
-28.798
-33.265
-37.713
-42.132
-46.51
-50.837
-55.106
-59.307
-63.434
-67.482
-71.446
-75.322
-79.108
-82.801
-86.401
-89.908
-93.323
-96.649
-99.887
-103.044
-106.122
-109.128
-112.068
-114.948
-117.775
-120.557
-123.301
-126.014
-128.704
-131.379
-134.047
-136.714
-139.389
-142.079
-144.79
-147.527
-150.295
-153.1
-155.943
-158.827
-161.753
-164.721
-167.731
-170.782
-173.871
-176.995
-180.151
-183.333
-186.536
-189.753
-192.977
-196.2
-199.413
-202.607
-205.772
-208.899
-211.977
-214.998
-217.95
-220.823
-223.608
-226.295
-228.873
-231.333
-233.666
-235.861
-237.911
-239.808
-241.546
-243.118
-244.519
-245.747
-246.797
-247.668
-248.358
-248.867
-249.196
-249.345
-249.318
-249.117
-248.747
-248.214
-247.522
-246.68
-245.694
-244.573
-243.324
-241.955
-240.476
-238.894
-237.219
-235.46
-233.627
-231.727
-229.773
-227.771
-225.733
-223.667
-221.582
-219.485
-217.384
-215.287
-213.198
-211.124
-209.069
-207.039
-205.038
-203.068
-201.133
-199.235
-197.376
-195.557
-193.778
-192.038
-190.338
-188.676
-187.052
-185.465
-183.913
-182.396
-180.912
-179.462
-178.043
-176.656
-175.297
-173.965
-172.659
-171.377
-170.119
-168.883
-167.669
-166.477
-165.307
-164.161
-163.04
-161.944
-160.875
-159.834
-158.823
-157.844
-156.899
-155.99
-155.118
-154.287
-153.498
-152.755
-152.057
-151.407
-150.805
-150.249
-149.739
-149.274
-148.849
-148.461
-148.108
-147.787
-147.497
-147.235
-146.997
-146.781
-146.583
-146.4
-146.227
-146.053
-145.87
-145.666
-145.434
-145.165
-144.851
-144.484
-144.055
-143.558
-142.989
-142.342
-141.611
-140.785
-139.847
-138.787
-137.608
-136.314
-134.919
-133.433
-131.865
-130.23
-128.551
-126.843
-125.118
-123.369
-121.575
-119.728
-117.831
-115.897
-113.953
-112.008
-110.055
-108.089
-106.098
-104.074
-102.011
-99.888
-97.661
-95.319
-92.872
-90.357
-87.85
-85.398
-83.025
-80.751
-78.579
-76.532
-74.651
-72.961
-71.483
-70.245
-69.266
-68.582
-68.258
-68.301
-68.691
-69.381
-70.271
-71.3
-72.426
-73.6
-74.783
-75.928
-76.971
-77.871
-78.606
-79.139
-79.458
-79.559
-79.409
-79.032
-78.46
-77.712
-76.875
-76.025
-75.226
-74.584
-74.191
-74.099
-74.436
-75.349
-76.803
-78.669
-80.643
-82.227
-83.09
-83.011
-81.639
-78.695
-74.261
-68.767
-63.112
-58.435
-55.394
-54.285
-55.515
-59.266
-65.088
-71.806
-77.372
-79.558
-76.928
-68.506
-53.004
-29.193
3.398
44.208
91.225
142.037
194.927
248.048
298.255
341.482
373.694
391.338
392.302
375.005
337.194
277.493
197.083
99.295
-11.162
-128.42
-246.834
-360.506
-461.956
-544.166
-602.651
-634.977
-640.697
-621.721
-580.933
-522.402
-452.734
-379.136
-307.583
-243.32
-190.134
-149.651
-122.494
-108.111
-103.793
-106.023
-111.486
-116.681
-119.023
-117.35
-111.048
-100.228
-86.045
-69.966
-53.558
-38.675
-26.556
-17.673
-12.224
-9.965
-10.329
-12.751
-16.528
-20.803
-24.975
-28.688
-31.666
-33.85
-35.238
-35.791
-35.564
-34.652
-33.113
-31.01
-28.415
-25.375
-21.969
-18.298
-14.444
-10.505
-6.589
-2.794
0.772
4.036
6.965
9.542
11.77
13.662
15.242
16.552
17.653
18.606
19.467
20.291
21.122
22.017
23.038
24.244
25.696
27.441
29.514
31.943
34.755
37.969
41.602
45.657
50.13
55.022
60.336
66.08
72.264
78.887
85.94
93.407
101.271
109.506
118.086
126.971
136.107
145.449
154.956
164.591
174.328
184.129
193.951
203.75
213.487
223.129
232.665
242.082
251.375
260.554
269.648
278.697
287.762
296.882
306.067
315.321
324.628
333.969
343.333
352.686
361.975
371.135
380.077
388.704
396.912
404.563
411.489
417.521
422.474
426.203
428.609
429.609
429.145
427.178
423.678
418.651
412.141
404.204
394.917
384.379
372.704
360.049
346.615
332.593
318.181
303.545
288.813
274.108
259.536
245.184
231.126
217.415
204.075
191.132
178.61
166.512
154.832
143.535
132.557
121.849
111.369
101.09
91.005
81.11
71.405
61.904
52.632
43.618
34.895
26.49
18.423
10.719
3.407
-3.475
-9.886
-15.792
-21.174
-26.018
-30.319
-34.075
-37.289
-39.975
-42.154
-43.847
-45.076
-45.86
-46.217
-46.169
-45.739
-44.953
-43.837
-42.417
-40.716
-38.756
-36.561
-34.154
-31.555
-28.782
-25.853
-22.785
-19.595
-16.302
-12.922
-9.474
-5.971
-2.43
1.134
4.709
8.281
11.84
15.377
18.884
22.351
25.774
29.145
32.461
35.718
38.913
42.042
45.106
48.103
51.034
53.899
56.699
59.436
62.112
64.728
67.287
69.79
72.239
74.636
76.983
79.28
81.529
83.733
85.891
88.007
90.08
92.112
94.105
96.06
97.977
99.858
101.703
103.513
105.288
107.031
108.741
110.42
112.068
113.687
115.277
116.839
118.372
119.878
121.357
122.808
124.233
125.633
127.008
128.359
129.689
130.999
132.291
133.568
134.832
136.086
137.333
138.574
139.814
141.055
142.3
143.552
144.814
146.089
147.381
148.69
150.021
151.374
152.752
154.155
155.586
157.045
158.535
160.055
161.607
163.192
164.811
166.464
168.152
169.875
171.633
173.425
175.25
177.108
178.997
180.917
182.866
184.843
186.847
188.876
190.93
193.006
195.104
197.221
199.357
201.51
203.678
205.862
208.059
210.27
212.495
214.732
216.983
219.246
221.522
223.811
226.113
228.428
230.758
233.102
235.462
237.84
240.235
242.652
245.09
247.551
250.038
252.552
255.095
257.668
260.272
262.908
265.578
268.283
271.022
273.798
276.61
279.459
282.344
285.265
288.222
291.214
294.241
297.301
300.393
303.517
306.672
309.857
313.069
316.307
319.57
322.854
326.157
329.475
332.805
336.142
339.484
342.827
346.166
349.497
352.818
356.123
359.41
362.674
365.914
369.125
372.305
375.452
378.562
381.635
384.669
387.661
390.612
393.52
396.383
399.202
401.974
404.7
407.38
410.013
412.6
415.141
417.64
420.099
422.523
424.915
427.28
429.623
431.95
434.265
436.573
438.879
441.187
443.502
445.828
448.172
450.539
452.936
455.368
457.844
460.369
462.95
465.596
468.31
471.098
473.964
476.913
479.953
483.094
486.34
489.692
493.143
496.689
500.315
504.006
507.739
511.482
515.207
518.886
522.496
526.02
529.442
532.746
535.917
538.932
541.782
544.47
547.008
549.415
551.714
553.926
556.088
558.25
560.453
562.726
565.079
567.503
569.974
572.457
574.912
577.29
579.518
581.499
583.121
584.259
584.796
584.622
583.61
581.617
578.511
574.191
568.586
561.658
553.389
543.782
532.862
520.684
507.347
492.975
477.705
461.682
445.032
427.875
410.342
392.575
374.701
356.818
338.999
321.292
303.746
286.397
269.251
252.279
235.401
218.53
201.593
184.533
167.322
149.952
132.429
114.775
97.051
79.352
61.78
44.437
27.412
10.794
-5.299
-20.728
-35.334
-48.947
-61.436
-72.689
-82.612
-91.166
-98.374
-104.312
-109.143
-113.064
-116.246
-118.901
-121.291
-123.587
-125.863
-128.049
-129.898
-131.212
-131.924
-131.915
-130.957
-128.996
-126.345
-123.743
-122.41
-123.535
-127.812
-135.771
-148.032
-164.701
-185.009
-207.327
-228.94
-246.82
-258.74
-262.641
-256.174
-237.828
-207.173
-164.892
-113.409
-55.878
4.893
65.197
120.205
165.528
196.738
209.762
202.005
170.761
115.48
40.095
-50.73
-152.22
-264.111
-392.197
-536.046
-687.512
-826.566
-923.048
-960.2
-935.857
-864.221
-775.424
-689.489
-615.677
-555.58
-500.323
-446.953
-398.932
-359.186
-331.763
-317.278
-311.828
-311.447
-312.892
-313.066
-310
-302.948
-291.641
-276.598
-259.332
-241.461
-224.414
-209.864
-198.955
-192.091
-189.442
-190.723
-195.297
-202.567
-211.843
-222.277
-233.245
-244.346
-255.233
-265.726
-275.67
-284.842
-293.125
-300.485
-306.878
-312.295
-316.737
-320.189
-322.683
-324.301
-325.119
-325.23
-324.731
-323.701
-322.235
-320.438
-318.41
-316.258
-314.052
-311.823
-309.578
-307.298
-304.949
-302.494
-299.879
-297.036
-293.902
-290.417
-286.53
-282.201
-277.381
-272.017
-266.049
-259.424
-252.113
-244.104
-235.403
-226.026
-216.002
-205.368
-194.185
-182.513
-170.408
-157.915
-145.063
-131.889
-118.437
-104.765
-90.937
-77.006
-63.007
-48.971
-34.929
-20.898
-6.89
7.111
21.153
35.26
49.435
63.653
77.862
92.01
106.061
119.98
133.731
147.263
160.498
173.364
185.798
197.72
209.03
219.584
229.188
237.678
244.933
250.863
255.42
258.557
260.212
260.333
258.879
255.84
251.227
245.052
237.315
228.03
217.251
205.094
191.741
177.366
162.116
146.121
129.488
112.344
94.84
77.131
59.365
41.661
24.129
6.886
-9.935
-26.193
-41.785
-56.667
-70.842
-84.326
-97.129
-109.253
-120.705
-131.53
-141.793
-151.576
-160.966
-170.022
-178.8
-187.361
-195.781
-204.149
-212.536
-220.974
-229.471
-238.027
-246.641
-255.313
-264.039
-272.777
-281.476
-290.075
-298.502
-306.716
-314.683
-322.368
-329.739
-336.758
-343.397
-349.649
-355.519
-361.013
-366.138
-370.9
-375.309
-379.394
-383.19
-386.734
-390.07
-393.227
-396.228
-399.095
-401.845
-404.494
-407.055
-409.53
-411.919
-414.224
-416.449
-418.599
-420.679
-422.691
-424.63
-426.497
-428.288
-430.002
-431.639
-433.2
-434.685
-436.097
-437.438
-438.713
-439.928
-441.085
-442.188
-443.238
-444.236
-445.183
-446.08
-446.929
-447.731
-448.488
-449.203
-449.88
-450.523
-451.139
-451.731
-452.304
-452.863
-453.414
-453.959
-454.505
-455.055
-455.613
-456.182
-456.768
-457.372
-457.998
-458.648
-459.326
-460.031
-460.766
-461.532
-462.329
-463.158
-464.018
-464.909
-465.83
-466.78
-467.758
-468.76
-469.784
-470.826
-471.881
-472.942
-474.002
-475.054
-476.089
-477.098
-478.071
-478.997
-479.867
-480.668
-481.391
-482.023
-482.554
-482.971
-483.265
-483.422
-483.433
-483.285
-482.969
-482.473
-481.788
-480.903
-479.808
-478.494
-476.952
-475.173
-473.149
-470.873
-468.338
-465.539
-462.471
-459.13
-455.515
-451.622
-447.453
-443.008
-438.288
-433.297
-428.039
-422.519
-416.742
-410.715
-404.446
-397.944
-391.216
-384.273
-377.125
-369.782
-362.256
-354.556
-346.696
-338.687
-330.542
-322.272
-313.891
-305.411
-296.845
-288.206
-279.507
-270.758
-261.974
-253.163
-244.338
-235.508
-226.682
-217.869
-209.08
-200.32
-191.599
-182.921
-174.294
-165.722
-157.211
-148.763
-140.382
-132.068
-123.822
-115.646
-107.543
-99.513
-91.557
-83.676
-75.87
-68.142
-60.496
-52.929
-45.442
-38.032
-30.696
-23.443
-16.28
-9.211
-2.241
4.623
11.375
18.004
24.495
30.85
37.067
43.146
49.089
54.882
60.512
65.968
71.235
76.312
81.203
85.894
90.375
94.646
98.702
102.551
106.203
109.632
112.81
115.718
118.331
120.647
122.669
124.384
125.79
126.875
127.625
128.046
128.144
127.904
127.321
126.381
125.065
123.407
121.447
119.208
116.727
114.019
111.098
107.996
104.746
101.371
97.906
94.371
90.787
87.201
83.651
80.183
76.847
73.651
70.599
67.706
64.983
62.448
60.129
58.034
56.175
54.574
53.253
52.233
51.539
51.175
51.142
51.437
52.053
53
54.293
55.938
57.94
60.293
62.987
66.015
69.368
73.017
76.924
81.037
85.301
89.678
94.144
98.678
103.262
107.871
112.483
117.077
121.649
126.2
130.723
135.208
139.646
144.044
148.431
152.858
157.368
161.98
166.688
171.47
176.311
181.179
186.03
190.808
195.417
199.764
203.771
207.362
210.459
212.98
214.818
215.853
215.993
215.166
213.333
210.478
206.573
201.622
195.655
188.72
180.919
172.367
163.163
153.425
143.286
132.871
122.319
111.775
101.346
91.134
81.226
71.683
62.587
53.996
45.947
38.476
31.574
25.211
19.361
13.969
8.951
4.245
-0.22
-4.516
-8.68
-12.746
-16.749
-20.697
-24.606
-28.489
-32.345
-36.179
-39.979
-43.715
-47.355
-50.849
-54.114
-57.087
-59.701
-61.884
-63.597
-64.813
-65.515
-65.733
-65.502
-64.87
-63.897
-62.634
-61.151
-59.545
-57.911
-56.375
-55.078
-54.126
-53.683
-53.942
-54.936
-56.584
-58.665
-60.747
-62.508
-63.73
-64.043
-63.122
-60.987
-57.944
-54.716
-52.264
-51.076
-51.277
-53.069
-56.431
-60.773
-64.917
-66.948
-64.827
-57.285
-43.6
-22.965
5.356
41.427
84.538
133.026
184.93
238.832
293.423
346.532
395.012
435.885
466.384
483.756
485.763
470.065
434.225
379.748
310.272
226.924
133.594
31.461
-78.642
-184.374
-275.503
-341.308
-371.139
-370.827
-346.758
-305.407
-257.228
-202.517
-142.3
-81.064
-20.355
34.42
78.379
111.037
132.453
144.097
148.806
148.91
146.567
144.442
144.64
148.039
154.903
164.925
177.136
190.581
204.308
216.951
227.514
235.664
241.334
244.841
246.748
247.484
247.515
247.469
247.757
248.579
250.045
252.078
254.566
257.476
260.724
264.191
267.801
271.473
275.132
278.721
282.15
285.303
288.089
290.435
292.286
293.627
294.455
294.767
294.567
293.86
292.646
290.917
288.659
285.837
282.4
278.329
273.63
268.34
262.52
256.218
249.475
242.334
234.833
227.034
219.026
210.901
202.761
194.747
187.019
179.772
173.252
167.652
163.118
159.762
157.636
156.782
157.247
159.051
162.196
166.673
172.431
179.409
187.54
196.699
206.742
217.497
228.736
240.277
251.998
263.802
275.657
287.563
299.496
311.437
323.375
335.269
347.097
358.842
370.471
381.983
393.379
404.657
415.848
426.958
437.925
448.661
459.012
468.763
477.743
485.817
492.858
498.797
503.576
507.134
509.447
510.507
510.306
508.85
506.131
502.129
496.881
490.471
483.042
474.81
465.953
456.596
446.855
436.802
426.488
415.972
405.277
394.381
383.287
372.014
360.612
349.178
337.792
326.488
315.26
304.06
292.854
281.658
270.496
259.402
248.435
237.653
227.145
217.05
207.478
198.484
190.096
182.276
174.97
168.163
161.854
156.054
150.782
146.03
141.788
138.062
134.841
132.101
129.796
127.837
126.147
124.691
123.457
122.472
121.787
121.422
121.382
121.677
122.296
123.221
124.434
125.879
127.489
129.215
131.017
132.884
134.823
136.814
138.828
140.825
142.748
144.568
146.276
147.848
149.263
150.517
151.603
152.557
153.447
154.32
155.206
156.106
156.984
157.809
158.553
159.169
159.602
159.775
159.577
158.929
157.772
156.042
153.679
150.593
146.654
141.765
135.863
128.911
120.918
111.901
101.877
90.91
79.091
66.54
53.414
39.835
25.894
11.688
-2.69
-17.125
-31.472
-45.615
-59.468
-72.956
-86.03
-98.643
-110.748
-122.336
-133.429
-144.067
-154.31
-164.195
-173.731
-182.929
-191.801
-200.362
-208.644
-216.661
-224.411
-231.893
-239.108
-246.057
-252.749
-259.173
-265.305
-271.118
-276.581
-281.679
-286.409
-290.771
-294.771
-298.416
-301.716
-304.69
-307.364
-309.764
-311.91
-313.823
-315.523
-317.035
-318.389
-319.614
-320.737
-321.788
-322.789
-323.764
-324.738
-325.73
-326.759
-327.84
-328.985
-330.21
-331.526
-332.947
-334.484
-336.148
-337.946
-339.888
-341.978
-344.223
-346.624
-349.181
-351.894
-354.758
-357.77
-360.924
-364.21
-367.621
-371.145
-374.773
-378.491
-382.287
-386.146
-390.054
-393.995
-397.953
-401.912
-405.856
-409.767
-413.63
-417.428
-421.147
-424.771
-428.286
-431.677
-434.932
-438.039
-440.984
-443.757
-446.347
-448.743
-450.938
-452.924
-454.694
-456.243
-457.568
-458.666
-459.535
-460.176
-460.588
-460.774
-460.735
-460.476
-460.001
-459.314
-458.423
-457.334
-456.055
-454.594
-452.961
-451.164
-449.214
-447.12
-444.891
-442.536
-440.065
-437.487
-434.811
-432.046
-429.199
-426.28
-423.296
-420.255
-417.165
-414.03
-410.858
-407.653
-404.421
-401.165
-397.889
-394.597
-391.292
-387.976
-384.652
-381.322
-377.988
-374.65
-371.309
-367.966
-364.619
-361.268
-357.913
-354.552
-351.185
-347.812
-344.43
-341.041
-337.643
-334.237
-330.822
-327.399
-323.967
-320.529
-317.083
-313.633
-310.179
-306.724
-303.27
-299.82
-296.377
-292.943
-289.521
-286.114
-282.724
-279.353
-276.003
-272.677
-269.375
-266.101
-262.857
-259.643
-256.461
-253.314
-250.202
-247.126
-244.086
-241.081
-238.112
-235.178
-232.278
-229.409
-226.572
-223.763
-220.98
-218.22
-215.479
-212.754
-210.039
-207.329
-204.62
-201.905
-199.18
-196.44
-193.679
-190.895
-188.083
-185.241
-182.366
-179.455
-176.506
-173.519
-170.491
-167.424
-164.317
-161.171
-157.988
-154.772
-151.529
-148.264
-144.983
-141.694
-138.403
-135.117
-131.844
-128.59
-125.359
-122.158
-118.993
-115.875
-112.815
-109.823
-106.906
-104.073
-101.331
-98.687
-96.144
-93.702
-91.356
-89.105
-86.951
-84.902
-82.972
-81.169
-79.493
-77.946
-76.52
-75.209
-74.002
-72.878
-71.808
-70.768
-69.74
-68.715
-67.692
-66.652
-65.567
-64.402
-63.109
-61.66
-60.03
-58.199
-56.168
-53.95
-51.566
-49.058
-46.471
-43.843
-41.245
-38.729
-36.355
-34.222
-32.391
-30.997
-30.25
-30.189
-30.733
-31.673
-32.562
-33.06
-33.035
-32.169
-30.044
-26.667
-22.282
-17.675
-14.216
-12.64
-13.076
-15.704
-20.619
-27.473
-35.465
-42.671
-46.252
-44.406
-36.207
-20.92
2.062
33.378
73.084
119.796
170.977
224.674
279.461
333.773
385.426
431.046
467.191
491.152
500.915
494.421
469.426
424.382
359.334
276.692
180.261
74.588
-35.097
-142.9
-242.066
-326.077
-389.724
-430.059
-446.127
-438.375
-408.883
-361.33
-301.086
-234.344
-167.239
-104.791
-50.487
-6.885
24.799
44.86
55.006
58.009
57.251
55.82
55.791
58.748
65.54
76.131
89.912
105.688
121.755
136.473
148.842
158.211
164.359
167.518
168.027
166.422
163.503
160.077
156.73
153.911
151.861
150.644
150.339
150.97
152.49
154.834
157.928
161.695
166.072
170.992
176.36
182.072
188.001
194.015
199.988
205.783
211.301
216.482
221.281
225.683
229.687
233.293
236.529
239.442
242.083
244.504
246.762
248.905
250.997
253.108
255.307
257.664
260.235
263.06
266.176
269.613
273.396
277.544
282.072
286.987
292.303
298.04
304.212
310.828
317.89
325.393
333.325
341.672
350.412
359.511
368.937
378.661
388.661
398.918
409.41
420.104
430.961
441.939
453.01
464.16
475.377
486.651
497.98
509.377
520.876
532.526
544.357
556.37
568.545
580.848
593.251
605.734
618.275
630.831
643.334
655.696
667.824
679.623
690.976
701.739
711.725
720.748
728.667
735.389
740.872
745.079
747.962
749.478
749.592
748.302
745.639
741.638
736.339
729.799
722.105
713.395
703.861
693.68
682.975
671.825
660.25
648.294
636.031
623.537
610.884
598.136
585.351
572.613
560.031
547.691
535.646
523.909
512.438
501.23
490.326
479.801
469.773
460.328
451.511
443.372
435.951
429.27
423.332
418.094
413.462
409.374
405.795
402.714
400.154
398.106
396.532
395.382
394.586
394.089
393.86
393.856
394.035
394.382
394.899
395.63
396.647
397.99
399.673
401.694
404.026
406.649
409.542
412.663
415.976
419.445
423.03
426.709
430.456
434.224
437.963
441.609
445.098
448.396
451.485
454.354
457.02
459.51
461.871
464.185
466.522
468.93
471.449
474.1
476.905
479.899
483.084
486.441
489.926
493.462
496.957
500.308
503.372
505.975
507.933
509.028
509.068
507.901
505.371
501.349
495.718
488.354
479.198
468.25
455.54
441.151
425.195
407.812
389.212
369.651
349.389
328.718
307.912
287.212
266.893
247.196
228.35
210.591
194.088
178.963
165.311
153.177
142.567
133.463
125.771
119.349
114.057
109.714
106.156
103.236
100.773
98.62
96.647
94.718
92.743
90.658
88.407
85.966
83.333
80.505
77.533
74.498
71.487
68.623
66.006
63.702
61.791
60.313
59.276
58.684
58.498
58.647
59.073
59.704
60.468
61.315
62.162
62.902
63.422
63.574
63.24
62.346
60.819
58.619
55.743
52.202
48.051
43.39
38.298
32.843
27.084
21.051
14.797
8.394
1.916
-4.539
-10.89
-17.085
-23.066
-28.792
-34.243
-39.415
-44.337
-49.073
-53.668
-58.146
-62.524
-66.792
-70.949
-74.996
-78.933
-82.768
-86.513
-90.175
-93.774
-97.329
-100.847
-104.337
-107.786
-111.158
-114.421
-117.538
-120.478
-123.231
-125.796
-128.184
-130.413
-132.491
-134.42
-136.198
-137.806
-139.228
-140.446
-141.424
-142.147
-142.637
-142.93
-143.098
-143.232
-143.393
-143.631
-143.984
-144.474
-145.142
-146.032
-147.179
-148.637
-150.461
-152.715
-155.491
-158.862
-162.854
-167.465
-172.642
-178.298
-184.377
-190.83
-197.61
-204.688
-212.024
-219.572
-227.311
-235.205
-243.211
-251.277
-259.314
-267.239
-275.01
-282.6
-290.025
-297.336
-304.557
-311.701
-318.791
-325.83
-332.828
-339.797
-346.715
-353.546
-360.268
-366.861
-373.335
-379.718
-386.011
-392.211
-398.293
-404.201
-409.906
-415.393
-420.626
-425.578
-430.218
-434.505
-438.448
-442.099
-445.494
-448.671
-451.648
-454.415
-456.982
-459.366
-461.589
-463.688
-465.687
-467.591
-469.439
-471.276
-473.147
-475.112
-477.182
-479.311
-481.476
-483.652
-485.815
-487.972
-490.111
-492.198
-494.217
-496.142
-497.938
-499.586
-501.039
-502.237
-503.132
-503.667
-503.817
-503.602
-503.024
-502.094
-500.84
-499.274
-497.416
-495.311
-492.996
-490.52
-487.97
-485.429
-482.994
-480.766
-478.825
-477.241
-476.049
-475.268
-474.922
-475.02
-475.559
-476.539
-477.922
-479.684
-481.82
-484.169
-486.435
-488.208
-488.892
-487.969
-485.065
-479.713
-471.598
-460.86
-447.883
-433.458
-418.811
-404.824
-392.216
-381.915
-374.248
-368.726
-364.403
-359.605
-352.291
-340.968
-323.948
-299.056
-265.105
-222.21
-171.254
-113.872
-51.948
12.652
75.195
128.276
165.873
184.71
188.006
182.057
169.571
148.745
107.649
32.767
-85.24
-250.579
-446.381
-645.772
-815.947
-921.098
-952.086
-915.778
-831.462
-728.814
-618.453
-504.836
-391.398
-280.256
-187.768
-125.822
-97.147
-96.114
-102.321
-102.771
-92.335
-70.909
-50.743
-37.283
-30.611
-31.482
-32.698
-30.39
-24.746
-14.145
-0.987
12.11
24.584
34.964
42.914
49.073
53.531
56.554
58.672
60.29
61.93
64.254
67.616
72.082
77.663
84.251
91.708
99.973
108.934
118.427
128.334
138.559
149.02
159.658
170.365
180.986
191.4
201.516
211.288
220.716
229.799
238.522
246.897
254.943
262.671
270.104
277.25
284.09
290.636
296.933
303.052
309.107
315.21
321.431
327.821
334.413
341.23
348.315
355.699
363.389
371.411
379.794
388.575
397.823
407.57
417.782
428.403
439.338
450.479
461.758
473.116
484.491
495.838
507.102
518.245
529.253
540.093
550.712
561.049
571.022
580.585
589.758
598.568
607.045
615.219
623.075
630.593
637.751
644.498
650.762
656.443
661.424
665.612
668.942
671.363
672.822
673.238
672.482
670.443
667.033
662.192
655.899
648.141
638.923
628.295
616.353
603.24
589.103
574.06
558.2
541.604
524.361
506.59
488.438
470.022
451.44
432.765
414.045
395.332
376.657
358.008
339.325
320.52
301.507
282.244
262.737
242.998
223.049
202.897
182.543
162.026
141.407
120.763
100.19
79.783
59.652
39.949
20.869
2.607
-14.648
-30.762
-45.653
-59.248
-71.484
-82.302
-91.642
-99.482
-105.826
-110.692
-114.121
-116.17
-116.909
-116.455
-114.966
-112.583
-109.436
-105.616
-101.171
-96.161
-90.658
-84.738
-78.495
-72.019
-65.391
-58.688
-51.976
-45.298
-38.684
-32.139
-25.635
-19.175
-12.778
-6.49
-0.392
5.453
11.004
16.24
21.162
25.793
30.175
34.349
38.348
42.189
45.876
49.399
52.737
55.885
58.85
61.661
64.37
67.021
69.643
72.251
74.839
77.382
79.83
82.139
84.268
86.189
87.888
89.359
90.601
91.616
92.404
92.956
93.253
93.276
93.009
92.446
91.592
90.46
89.076
87.464
85.647
83.644
81.464
79.114
76.598
73.913
71.055
68.019
64.808
61.424
57.871
54.15
50.26
46.201
41.967
37.556
32.963
28.188
23.228
18.087
12.768
7.276
1.619
-4.195
-10.158
-16.265
-22.509
-28.884
-35.384
-42.001
-48.729
-55.56
-62.486
-69.499
-76.591
-83.751
-90.973
-98.248
-105.568
-112.925
-120.312
-127.718
-135.138
-142.562
-149.985
-157.398
-164.796
-172.172
-179.523
-186.846
-194.139
-201.4
-208.629
-215.827
-222.995
-230.137
-237.252
-244.343
-251.413
-258.463
-265.499
-272.524
-279.542
-286.56
-293.585
-300.626
-307.695
-314.8
-321.952
-329.157
-336.425
-343.762
-351.177
-358.676
-366.263
-373.942
-381.72
-389.604
-397.611
-405.745
-414.004
-422.38
-430.856
-439.421
-448.066
-456.776
-465.53
-474.313
-483.119
-491.951
-500.83
-509.762
-518.741
-527.75
-536.755
-545.738
-554.696
-563.632
-572.55
-581.455
-590.344
-599.228
-608.145
-617.106
-626.1
-635.089
-643.995
-652.769
-661.392
-669.855
-678.168
-686.323
-694.289
-702.04
-709.555
-716.805
-723.764
-730.383
-736.569
-742.259
-747.424
-752.063
-756.223
-759.922
-763.142
-765.854
-768.037
-769.69
-770.834
-771.487
-771.655
-771.368
-770.664
-769.603
-768.299
-766.851
-765.342
-763.859
-762.455
-761.211
-760.241
-759.666
-759.581
-760.056
-761.138
-762.866
-765.291
-768.437
-772.32
-776.936
-782.246
-788.209
-794.764
-801.818
-809.271
-817.002
-824.856
-832.662
-840.279
-847.596
-854.518
-860.972
-866.877
-872.164
-876.768
-880.627
-883.689
-885.898
-887.229
-887.695
-887.333
-886.206
-884.405
-882.042
-879.208
-875.975
-872.392
-868.487
-864.289
-859.824
-855.119
-850.205
-845.12
-839.918
-834.635
-829.29
-823.881
-818.387
-812.768
-806.965
-800.935
-794.642
-788.071
-781.224
-774.111
-766.744
-759.138
-751.315
-743.285
-735.053
-726.623
-718.003
-709.211
-700.278
-691.243
-682.154
-673.057
-663.995
-655.002
-646.103
-637.318
-628.665
-620.153
-611.786
-603.57
-595.514
-587.626
-579.926
-572.426
-565.139
-558.073
-551.233
-544.626
-538.263
-532.152
-526.301
-520.718
-515.409
-510.385
-505.654
-501.222
-497.082
-493.216
-489.592
-486.173
-482.921
-479.792
-476.75
-473.76
-470.788
-467.812
-464.816
-461.777
-458.662
-455.458
-452.183
-448.889
-445.668
-442.642
-439.924
-437.694
-436.229
-435.667
-435.988
-437.026
-438.384
-439.752
-441.094
-442.259
-442.959
-443.318
-443.729
-445.03
-448.738
-455.777
-466.108
-479.68
-496.255
-514.932
-534.688
-553.501
-568.077
-576.262
-577.263
-570.465
-555.89
-533.869
-504.248
-468.191
-428.283
-386.043
-342.277
-297.772
-252.966
-209.349
-170.039
-137.729
-114.711
-104.042
-108.768
-131.971
-176.346
-242.246
-327.336
-427.911
-539.064
-654.951
-769.224
-874.567
-963.774
-1031.547
-1075.11
-1093.795
-1088.461
-1060.744
-1013.462
-951.375
-880.239
-805.514
-731.351
-660.644
-595.919
-539.957
-494.921
-461.189
-437.677
-422.655
-414.745
-412.928
-415.781
-420.937
-425.753
-428.664
-429.254
-427.748
-424.458
-419.559
-413.388
-406.947
-401.642
-398.268
-396.953
-397.402
-399.039
-401.384
-404.086
-406.58
-408.166
-408.425
-407.171
-404.413
-400.371
-395.213
-389.044
-382.029
-374.35
-366.158
-357.614
-348.85
-339.983
-331.165
-322.522
-314.147
-306.118
-298.474
-291.232
-284.403
-277.963
-271.87
-266.09
-260.59
-255.346
-250.339
-245.534
-240.892
-236.365
-231.903
-227.471
-223.047
-218.614
-214.165
-209.703
-205.238
-200.793
-196.398
-192.079
-187.858
-183.748
-179.758
-175.893
-172.166
-168.591
-165.183
-161.963
-158.954
-156.187
-153.693
-151.507
-149.651
-148.139
-146.974
-146.144
-145.637
-145.439
-145.541
-145.946
-146.653
-147.659
-148.961
-150.549
-152.395
-154.456
-156.675
-158.979
-161.307
-163.608
-165.858
-168.054
-170.215
-172.382
-174.59
-176.866
-179.236
-181.724
-184.344
-187.1
-190.012
-193.109
-196.441
-200.079
-204.085
-208.507
-213.365
-218.651
-224.311
-230.25
-236.358
-242.513
-248.584
-254.438
-259.96
-265.055
-269.628
-273.586
-276.817
-279.187
-280.567
-280.83
-279.867
-277.58
-273.915
-268.864
-262.449
-254.721
-245.75
-235.623
-224.406
-212.148
-198.889
-184.654
-169.479
-153.414
-136.509
-118.819
-100.405
-81.332
-61.649
-41.38
-20.525
0.939
23.052
45.869
69.429
93.761
118.878
144.775
171.445
198.876
227.055
255.964
285.596
315.947
347.007
378.764
411.19
444.244
477.877
512.031
546.646
581.672
617.062
652.781
688.795
725.075
761.589
798.313
835.22
872.278
909.457
946.721
984.027
1021.335
1058.604
1095.79
1132.846
1169.718
1206.336
1242.64
1278.566
1314.058
1349.064
1383.524
1417.373
1450.556
1483.021
1514.727
1545.655
1575.789
1605.123
1633.67
1661.455
1688.518
1714.913
1740.678
1765.832
1790.392
1814.358
1837.733
1860.524
1882.716
1904.286
1925.192
1945.363
1964.712
1983.129
2000.466
2016.547
2031.201
2044.24
2055.509
2064.875
2072.215
2077.438
2080.467
2081.241
2079.727
2075.908
2069.797
2061.445
2050.947
2038.444
2024.141
2008.276
1991.093
1972.848
1953.792
1934.167
1914.227
1894.189
1874.252
1854.598
1835.394
1816.811
1799.001
1782.077
1766.108
1751.118
1737.081
1723.942
1711.64
1700.09
1689.198
1678.855
1668.928
1659.316
1649.934
1640.703
1631.552
1622.393
1613.15
1603.778
1594.267
1584.628
1574.89
1565.103
1555.323
1545.638
1536.152
1526.977
1518.238
1510.038
1502.477
1495.64
1489.595
1484.407
1480.118
1476.732
1474.221
1472.543
1471.642
1471.437
1471.823
1472.657
1473.773
1475.009
1476.203
1477.197
1477.824
1477.93
1477.38
1476.062
1473.898
1470.838
1466.861
1461.959
1456.144
1449.46
1441.985
1433.825
1425.113
1415.962
1406.476
1396.761
1386.932
1377.096
1367.343
1357.739
1348.32
1339.117
1330.148
1321.42
1312.924
1304.622
1296.45
1288.337
1280.202
1271.983
1263.641
1255.137
1246.446
1237.56
1228.494
1219.279
1209.962
1200.586
1191.184
1181.804
1172.502
1163.346
1154.419
1145.797
1137.542
1129.71
1122.336
1115.433
1108.984
1102.933
1097.186
1091.651
1086.233
1080.839
1075.39
1069.8
1063.987
1057.888
1051.442
1044.599
1037.334
1029.634
1021.508
1013.023
1004.295
995.497
986.856
978.593
970.94
964.149
958.467
954.149
951.43
950.504
951.553
954.762
960.296
968.29
978.831
991.924
1007.512
1025.468
1045.6
1067.687
1091.452
1116.563
1142.66
1169.345
1196.211
1222.87
1248.908
1273.882
1297.339
1318.812
1337.834
1353.966
1366.806
1376.02
1381.361
1382.588
1379.458
1371.864
1359.863
1343.727
1323.799
1300.236
1272.966
1241.948
1207.42
1169.627
1128.602
1084.062
1035.617
983.432
928.512
872.216
815.499
759.196
704.329
652.297
604.827
562.9
526.161
493.572
464.392
438.102
414.227
391.816
369.198
345.333
320.364
295.149
270.588
247.165
224.914
204.383
186.924
173.408
163.966
157.69
152.81
147.874
141.867
133.417
120.75
102.206
76.317
43.122
4.246
-38.313
-82.288
-125.552
-166.249
-202.039
-230.138
-248.958
-258.32
-259.356
-254.521
-245.794
-234.538
-222.967
-214.202
-211.191
-216.389
-230.555
-252.326
-280.288
-313.111
-348.446
-382.89
-412.409
-432.538
-439.857
-433.078
-411.951
-377.31
-331.431
-277.699
-220.494
-165.48
-118.736
-85.353
-69.465
-73.673
-99.09
-146.124
-214.259
-301.214
-403.053
-515.032
-631.754
-748.084
-859.151
-959.575
-1043.556
-1105.873
-1142.727
-1151.603
-1133.884
-1093.951
-1035.202
-960.893
-870.461
-760.16
-633.77
-502.159
-382.367
-296.576
-256.003
-257.772
-290.443
-331.08
-358.267
-361.682
-335.591
-286.847
-230.819
-177.221
-135.626
-108.477
-88.845
-73.264
-58.375
-42.786
-30.185
-21.479
-15.499
-11.064
-5.521
2.321
11.387
21.084
31.222
41.325
51.274
60.698
68.594
74.791
80.015
84.673
89.061
93.37
97.395
101.153
104.962
108.745
112.121
114.799
116.463
116.934
116.24
114.326
111.079
106.476
100.544
93.335
84.929
75.377
64.69
52.896
40.034
26.147
11.289
-4.493
-21.153
-38.645
-56.921
-75.94
-95.673
-116.093
-137.177
-158.906
-181.26
-204.223
-227.783
-251.921
-276.612
-301.832
-327.556
-353.76
-380.42
-407.508
-434.994
-462.846
-491.03
-519.508
-548.244
-577.197
-606.325
-635.584
-664.927
-694.312
-723.693
-753.027
-782.268
-811.372
-840.293
-868.984
-897.401
-925.497
-953.225
-980.537
-1007.388
-1033.731
-1059.521
-1084.715
-1109.269
-1133.142
-1156.294
-1178.686
-1200.282
-1221.045
-1240.942
-1259.943
-1278.016
-1295.136
-1311.281
-1326.428
-1340.562
-1353.666
-1365.729
-1376.743
-1386.701
-1395.6
-1403.436
-1410.21
-1415.923
-1420.581
-1424.191
-1426.763
-1428.31
-1428.847
-1428.392
-1426.968
-1424.596
-1421.301
-1417.109
-1412.042
-1406.13
-1399.401
-1391.882
-1383.603
-1374.593
-1364.883
-1354.504
-1343.494
-1331.885
-1319.71
-1307
-1293.78
-1280.081
-1265.938
-1251.385
-1236.46
-1221.202
-1205.655
-1189.87
-1173.908
-1157.826
-1141.677
-1125.508
-1109.358
-1093.273
-1077.293
-1061.45
-1045.777
-1030.296
-1015.01
-999.924
-985.038
-970.328
-955.76
-941.286
-926.83
-912.336
-897.75
-883.016
-868.089
-852.927
-837.505
-821.83
-805.934
-789.855
-773.665
-757.443
-741.276
-725.308
-709.69
-694.581
-680.169
-666.622
-654.103
-642.795
-632.877
-624.495
-617.752
-612.687
-609.288
-607.536
-607.368
-608.69
-611.38
-615.244
-620.071
-625.661
-631.784
-638.203
-644.671
-650.888
-656.538
-661.365
-665.155
-667.761
-669.087
-669.031
-667.528
-664.557
-660.127
-654.311
-647.194
-638.836
-629.332
-618.816
-607.456
-595.489
-583.182
-570.752
-558.398
-546.292
-534.573
-523.411
-512.961
-503.347
-494.691
-487.083
-480.609
-475.385
-471.488
-468.946
-467.759
-467.866
-469.177
-471.627
-475.143
-479.647
-485.075
-491.331
-498.313
-505.924
-514.044
-522.561
-531.369
-540.339
-549.371
-558.394
-567.346
-576.201
-584.954
-593.593
-602.121
-610.539
-618.83
-626.992
-635.031
-642.958
-650.805
-658.588
-666.309
-673.98
-681.605
-689.192
-696.747
-704.247
-711.646
-718.888
-725.917
-732.687
-739.18
-745.37
-751.218
-756.682
-761.718
-766.306
-770.447
-774.117
-777.265
-779.812
-781.684
-782.843
-783.281
-783.002
-782.002
-780.263
-777.756
-774.466
-770.401
-765.565
-759.952
-753.535
-746.281
-738.206
-729.389
-719.939
-709.955
-699.503
-688.623
-677.351
-665.746
-653.866
-641.77
-629.497
-617.069
-604.527
-591.937
-579.373
-566.911
-554.57
-542.303
-530.059
-517.818
-505.59
-493.416
-481.335
-469.349
-457.501
-445.88
-434.572
-423.677
-413.255
-403.294
-393.827
-384.963
-376.756
-369.227
-362.415
-356.307
-350.947
-346.499
-343.013
-340.357
-338.681
-338.496
-339.888
-342.651
-346.799
-351.706
-358.371
-370.039
-385.867
-402.61
-415.029
-413.45
-398.325
-379.132
-365.331
-370.379
-395.077
-426.545
-454.819
-469.167
-467.679
-459.905
-451.723
-447.171
-447.531
-448.994
-449.908
-450.501
-450.702
-451.146
-452.018
-452.833
-453.487
-454.122
-454.762
-455.409
-456.097
-456.859
-457.748
-458.831
-460.089
-461.4
-462.651
-463.768
-464.696
-465.396
-465.835
-465.967
-465.748
-465.15
-464.156
-462.746
-460.903
-458.605
-455.838
-452.603
-448.911
-444.792
-440.289
-435.429
-430.236
-424.732
-418.919
-412.802
-406.384
-399.657
-392.616
-385.264
-377.606
-369.659
-361.436
-352.94
-344.18
-335.164
-325.888
-316.351
-306.534
-296.408
-285.972
-275.233
-264.201
-252.902
-241.351
-229.548
-217.493
-205.187
-192.628
-179.836
-166.823
-153.596
-140.186
-126.656
-113.111
-99.689
-86.508
-73.648
-61.165
-49.123
-37.612
-26.758
-16.703
-7.565
0.575
7.645
13.552
18.298
22.015
25.009
27.776
30.821
34.509
39.084
44.763
51.446
58.748
66.199
73.108
78.89
83.367
86.547
88.527
90.188
93.004
98.35
107.781
122.506
142.957
169.614
203.019
242.495
286.405
332.987
379.827
424.864
467.326
505.49
536.504
558.875
570.032
567.725
553.664
527.429
490.851
449.477
402.591
350.411
289.075
207.388
104.711
-13.404
-132.446
-225.845
-277.316
-282.224
-247.013
-192.505
-135.625
-84.301
-40.686
0.894
44.397
88.002
127.889
159.132
179.177
188.798
190.475
187.291
181.742
176.237
172.839
172.592
176.009
182.985
192.648
204.046
216.177
227.622
237.346
244.941
250.252
253.565
255.403
256.155
256.288
256.417
256.93
258.06
259.955
262.552
265.773
269.593
273.917
278.637
283.691
288.979
294.417
299.934
305.415
310.771
315.93
320.82
325.402
329.642
333.498
336.96
340.029
342.702
345.018
347.01
348.703
350.154
351.408
352.514
353.543
354.546
355.571
356.673
357.879
359.213
360.716
362.41
364.321
366.484
368.882
371.499
374.335
377.371
380.607
384.046
387.671
391.466
395.426
399.536
403.792
408.194
412.714
417.331
422.019
426.742
431.502
436.303
441.132
445.982
450.833
455.661
460.456
465.206
469.884
474.466
478.927
483.235
487.379
491.346
495.121
498.694
502.039
505.128
507.942
510.46
512.667
514.545
516.076
517.238
518.025
518.43
518.446
518.069
517.293
516.109
514.518
512.518
510.113
507.309
504.112
500.53
496.574
492.257
487.595
482.604
477.3
471.7
465.821
459.683
453.307
446.714
439.925
432.962
425.847
418.603
411.254
403.822
396.332
388.806
381.268
373.74
366.248
358.812
351.456
344.201
337.067
330.074
323.24
316.583
310.117
303.857
297.815
292.002
286.427
281.098
276.02
271.198
266.634
262.329
258.284
254.496
250.962
247.679
244.641
241.843
239.278
236.937
234.812
232.893
231.171
229.634
228.27
227.066
226.01
225.089
224.288
223.594
222.993
222.47
222.013
221.608
221.242
220.903
220.578
220.256
219.926
219.578
219.203
218.79
218.332
217.82
217.247
216.605
215.888
215.089
214.203
213.223
212.145
210.963
209.672
208.268
206.747
205.104
203.338
201.443
199.419
197.261
194.968
192.538
189.969
187.26
184.407
181.411
178.268
174.978
171.539
167.948
164.205
160.308
156.256
152.049
147.685
143.165
138.489
133.659
128.674
123.539
118.253
112.822
107.248
101.534
95.687
89.709
83.608
77.389
71.058
64.621
58.087
51.463
44.756
37.975
31.129
24.226
17.278
10.293
3.283
-3.741
-10.767
-17.784
-24.777
-31.736
-38.648
-45.501
-52.281
-58.979
-65.582
-72.08
-78.462
-84.718
-90.839
-96.816
-102.641
-108.306
-113.805
-119.131
-124.278
-129.242
-134.018
-138.603
-142.993
-147.186
-151.179
-154.972
-158.564
-161.954
-165.145
-168.137
-170.935
-173.541
-175.961
-178.2
-180.264
-182.16
-183.896
-185.478
-186.914
-188.212
-189.378
-190.42
-191.345
-192.159
-192.868
-193.478
-193.994
-194.42
-194.761
-195.018
-195.196
-195.295
-195.316
-195.26
-195.128
-194.918
-194.628
-194.258
-193.805
-193.264
-192.632
-191.902
-191.069
-190.125
-189.06
-187.867
-186.533
-185.048
-183.399
-181.575
-179.562
-177.348
-174.92
-172.265
-169.371
-166.226
-162.819
-159.141
-155.18
-150.925
-146.368
-141.501
-136.316
-130.807
-124.968
-118.794
-112.283
-105.431
-98.239
-90.708
-82.834
-74.618
-66.059
-57.157
-47.919
-38.355
-28.472
-18.28
-7.788
2.992
14.046
25.358
36.919
48.717
60.744
72.993
85.444
98.082
110.886
123.832
136.921
150.149
163.517
177.033
190.667
204.39
218.197
232.071
246.004
260.017
274.033
287.965
301.912
315.931
330.097
344.535
359.072
373.475
387.805
402.09
416.064
429.585
442.323
453.857
464.568
474.899
484.831
494.464
504.069
513.731
523.936
535.251
547.152
559.1
570.979
582.495
593.474
603.897
613.286
621.137
627.802
633.604
638.652
643.196
647.216
650.613
653.609
656.41
658.858
660.834
662.254
662.973
663.047
662.546
661.424
659.657
657.269
654.267
650.687
646.573
641.919
636.728
631.014
624.787
618.075
610.907
603.307
595.312
586.955
578.271
569.301
560.093
550.709
541.223
531.706
522.22
512.823
503.56
494.485
485.654
477.113
468.911
461.09
453.665
446.659
440.089
433.957
428.254
422.942
417.935
413.141
408.487
403.914
399.401
394.927
390.448
385.904
381.221
376.368
371.394
366.392
361.424
356.486
351.631
347.112
343.442
341.19
340.716
342.04
345.05
349.932
356.94
365.951
376.276
386.825
396.709
405.892
414.974
424.142
433.249
442.546
453.111
466.915
486.056
511.434
542.493
578.658
619.709
664.804
711.793
756.963
795.541
823.32
837.74
836.562
817.227
778.191
719.793
644.549
557.099
462.937
367.116
275.14
193.428
127.569
81.282
56.292
52.259
67.365
98.943
142.899
193.527
245.408
294.564
338.235
374.733
403.218
423.732
437.73
448.127
457.674
467.965
479.826
493.602
509.446
527.176
545.757
563.315
578.152
589.326
596.437
599.425
598.202
592.701
583.231
570.466
555.069
537.495
518.002
496.734
473.953
450.022
425.274
399.986
374.39
348.704
323.163
298.005
273.416
249.527
226.418
204.138
182.741
162.287
142.817
124.336
106.807
90.156
74.287
59.079
44.407
30.136
16.134
2.278
-11.547
-25.448
-39.509
-53.786
-68.342
-83.236
-98.518
-114.223
-130.363
-146.922
-163.871
-181.164
-198.743
-216.535
-234.458
-252.431
-270.363
-288.162
-305.755
-323.087
-340.107
-356.777
-373.059
-388.924
-404.356
-419.355
-433.92
-448.057
-461.777
-475.093
-488.029
-500.612
-512.875
-524.86
-536.599
-548.115
-559.424
-570.534
-581.454
-592.201
-602.786
-613.215
-623.506
-633.674
-643.746
-653.759
-663.747
-673.739
-683.758
-693.811
-703.902
-714.042
-724.243
-734.519
-744.873
-755.288
-765.741
-776.221
-786.705
-797.171
-807.583
-817.871
-827.979
-837.869
-847.512
-856.922
-866.118
-875.111
-883.922
-892.585
-901.148
-909.689
-918.297
-927.023
-935.922
-945.053
-954.482
-964.324
-974.673
-985.581
-997.08
-1009.155
-1021.775
-1034.921
-1048.562
-1062.636
-1077.081
-1091.802
-1106.705
-1121.758
-1136.92
-1152.146
-1167.38
-1182.508
-1197.427
-1212.069
-1226.384
-1240.35
-1253.956
-1267.164
-1279.929
-1292.219
-1303.975
-1315.141
-1325.636
-1335.304
-1343.986
-1351.522
-1357.764
-1362.612
-1365.979
-1367.755
-1367.819
-1366.045
-1362.296
-1356.47
-1348.512
-1338.383
-1326.095
-1311.699
-1295.289
-1277.032
-1257.131
-1235.804
-1213.265
-1189.714
-1165.347
-1140.378
-1115.055
-1089.636
-1064.406
-1039.633
-1015.536
-992.302
-970.083
-948.985
-929.072
-910.369
-892.859
-876.501
-861.265
-847.098
-833.925
-821.649
-810.115
-799.147
-788.544
-778.082
-767.566
-756.824
-745.695
-734.05
-721.787
-708.795
-694.976
-680.243
-664.49
-647.654
-629.713
-610.664
-590.554
-569.438
-547.382
-524.484
-500.846
-476.545
-451.651
-426.204
-400.218
-373.756
-346.919
-319.803
-292.521
-265.144
-237.692
-210.191
-182.664
-155.145
-127.683
-100.305
-73.032
-45.925
-19.081
7.348
33.181
58.295
82.619
106.08
128.602
150.059
170.279
189.13
206.525
222.408
236.752
249.518
260.696
270.338
278.571
285.613
291.716
297.101
301.971
306.55
311.098
315.945
321.465
327.968
335.719
344.94
355.827
368.58
383.35
400.203
419.115
439.968
462.601
486.846
512.508
539.338
567.035
595.215
623.449
651.359
678.584
704.797
729.701
752.982
774.379
793.708
810.849
825.757
838.421
848.852
857.107
863.299
867.582
870.183
871.369
871.384
870.488
868.91
866.859
864.564
862.221
859.979
857.951
856.211
854.803
853.766
853.116
852.835
852.889
853.189
853.622
854.071
854.4
854.484
854.211
853.448
852.075
850.004
847.174
843.557
839.151
833.945
827.934
821.128
813.547
805.261
796.372
787.001
777.302
767.445
757.615
748.03
738.901
730.407
722.711
715.938
710.188
705.576
702.211
700.199
699.643
700.585
703.022
706.917
712.167
718.638
726.152
734.483
743.412
752.738
762.259
771.808
781.234
790.36
799.016
807.007
814.111
820.159
825.024
828.617
830.915
831.921
831.674
830.256
827.743
824.197
819.687
814.241
807.881
800.658
792.619
783.861
774.53
764.742
754.591
744.149
733.451
722.532
711.417
700.105
688.614
676.979
665.257
653.553
641.981
630.633
619.608
608.959
598.706
588.886
579.537
570.699
562.414
554.714
547.622
541.167
535.349
530.134
525.45
521.161
517.122
513.198
509.242
505.122
500.713
495.865
490.424
484.256
477.23
469.237
460.173
449.941
438.473
425.736
411.747
396.577
380.325
363.085
344.955
326.039
306.45
286.337
265.865
245.176
224.397
203.631
182.96
162.477
142.268
122.397
102.903
83.768
64.9
46.203
27.578
8.917
-9.822
-28.737
-48.003
-67.645
-87.571
-107.585
-127.269
-146.292
-164.67
-182.399
-199.455
-216.158
-232.774
-249.682
-267.764
-287.612
-309.143
-332.175
-356.223
-380.136
-402.969
-423.766
-441.073
-453.864
-461.645
-463.892
-460.531
-452.283
-439.88
-424.149
-406.164
-386.866
-367.646
-350.662
-338.07
-331.759
-333.839
-346.142
-370.463
-408.753
-459.341
-519.052
-587.219
-660.802
-740.023
-825.397
-906.163
-973.862
-1019.665
-1034.241
-1023.96
-995.125
-953.188
-907.493
-857.703
-803.755
-748.635
-692.716
-640.478
-596.806
-563.015
-539.671
-525.728
-518.984
-517.904
-521.157
-526.638
-531.705
-534.549
-534.246
-530.494
-523.759
-514.548
-503.21
-490.668
-478.296
-466.915
-456.886
-448.296
-440.799
-434.094
-427.996
-422.069
-415.748
-408.708
-400.805
-392.041
-382.606
-372.636
-362.21
-351.483
-340.623
-329.781
-319.103
-308.656
-298.45
-288.517
-278.901
-269.642
-260.782
-252.328
-244.254
-236.545
-229.183
-222.144
-215.401
-208.91
-202.617
-196.467
-190.405
-184.387
-178.38
-172.349
-166.265
-160.101
-153.83
-147.44
-140.927
-134.283
-127.498
-120.564
-113.474
-106.226
-98.823
-91.266
-83.554
-75.688
-67.666
-59.487
-51.155
-42.666
-34.021
-25.221
-16.269
-7.177
2.042
11.376
20.814
30.348
39.965
49.641
59.354
69.079
78.79
88.456
98.036
107.475
116.722
125.736
134.49
142.968
151.153
159.026
166.568
173.763
180.611
187.119
193.286
199.105
204.568
209.687
214.504
219.087
223.497
227.768
231.911
235.923
239.804
243.55
247.138
250.524
253.631
256.389
258.745
260.668
262.125
263.055
263.355
262.886
261.53
259.203
255.852
251.437
245.909
239.25
231.485
222.689
212.986
202.491
191.305
179.514
167.211
154.529
141.65
128.782
116.126
103.855
92.12
81.069
70.865
61.628
53.433
46.297
40.193
35.094
30.982
27.838
25.628
24.282
23.695
23.738
24.277
25.193
26.38
27.723
29.101
30.415
31.598
32.619
33.477
34.166
34.679
35.01
35.165
35.169
35.062
34.897
34.734
34.622
34.601
34.715
35.003
35.495
36.21
37.147
38.288
39.62
41.132
42.808
44.636
46.59
48.644
50.768
52.928
55.096
57.253
59.375
61.444
63.443
65.357
67.178
68.903
70.528
72.047
73.457
74.752
75.933
76.999
77.95
78.782
79.488
80.053
80.467
80.723
80.815
80.748
80.53
80.175
79.7
79.123
78.454
77.696
76.839
75.863
74.745
73.456
71.984
70.332
68.507
66.516
64.356
62.006
59.428
56.566
53.359
49.74
45.655
41.067
35.979
30.435
24.51
18.316
11.933
5.411
-1.214
-7.93
-14.702
-21.471
-28.157
-34.661
-40.857
-46.607
-51.769
-56.209
-59.866
-62.754
-64.958
-66.641
-67.933
-68.922
-69.676
-70.216
-70.582
-70.832
-71.029
-71.239
-71.573
-72.169
-73.189
-74.82
-77.16
-80.217
-83.91
-88.057
-92.496
-97.088
-101.719
-106.318
-110.82
-115.158
-119.286
-123.174
-126.753
-129.924
-132.554
-134.462
-135.543
-135.762
-135.159
-133.86
-131.998
-129.708
-127.111
-124.306
-121.372
-118.374
-115.349
-112.31
-109.293
-106.351
-103.566
-101.06
-98.921
-97.201
-95.913
-95.024
-94.48
-94.218
-94.175
-94.294
-94.534
-94.872
-95.302
-95.835
-96.481
-97.242
-98.108
-99.049
-100.04
-101.062
-102.109
-103.19
-104.321
-105.53
-106.845
-108.291
-109.889
-111.65
-113.578
-115.668
-117.911
-120.297
-122.817
-125.47
-128.252
-131.163
-134.201
-137.362
-140.638
-144.022
-147.502
-151.068
-154.71
-158.418
-162.185
-166.003
-169.867
-173.774
-177.718
-181.693
-185.693
-189.71
-193.736
-197.763
-201.782
-205.786
-209.767
-213.719
-217.635
-221.511
-225.338
-229.111
-232.822
-236.464
-240.026
-243.5
-246.877
-250.148
-253.307
-256.349
-259.268
-262.055
-264.704
-267.204
-269.548
-271.724
-273.721
-275.529
-277.138
-278.547
-279.765
-280.798
-281.651
-282.326
-282.817
-283.117
-283.22
-283.111
-282.769
-282.174
-281.304
-280.149
-278.707
-276.974
-274.949
-272.622
-269.964
-266.964
-263.621
-259.947
-255.985
-251.778
-247.375
-242.853
-238.292
-233.794
-229.479
-225.451
-221.817
-218.691
-216.141
-214.283
-213.284
-213.138
-213.742
-214.879
-216.088
-216.992
-217.307
-216.543
-214.311
-210.648
-205.793
-200.412
-195.616
-192.156
-190.713
-192.257
-197.135
-204.857
-214.351
-223.6
-230.143
-232.02
-226.992
-212.378
-186.461
-148.731
-100.015
-42.732
20.051
85.163
148.217
203.64
245.967
270.422
273.694
253.972
210.319
142.782
53.409
-53.528
-172.272
-296.19
-418.646
-532.975
-632.73
-712.152
-766.834
-794.429
-794.309
-767.625
-717.393
-648.301
-565.891
-476.162
-385.24
-298.668
-221.898
-159.382
-113.092
-83.026
-68.057
-66.171
-74.757
-90.621
-109.098
-125.277
-136.279
-140.725
-138.07
-128.352
-111.649
-88.739
-62.144
-35.169
-9.876
12.71
32.193
48.506
61.19
70.099
76.229
81.22
86.229
91.828
98.146
105.091
112.915
121.853
131.696
141.942
152.133
161.988
171.438
180.514
189.112
197.075
204.325
210.851
216.7
221.922
226.521
230.48
233.813
236.552
238.749
240.459
241.71
242.538
242.989
243.127
243.04
242.812
242.503
242.167
241.842
241.544
241.293
241.096
240.936
240.814
240.753
240.787
240.997
241.476
242.295
243.517
245.182
247.313
249.95
253.132
256.879
261.225
266.19
271.788
278.068
285.054
292.726
301.043
309.905
319.177
328.745
338.502
348.351
358.224
368.044
377.732
387.252
396.579
405.706
414.651
423.387
431.886
440.156
448.216
456.126
463.965
471.776
479.583
487.4
495.218
503.017
510.765
518.366
525.671
532.493
538.611
543.828
547.959
550.789
552.09
551.62
549.155
544.521
537.578
528.193
516.225
501.569
484.161
464.014
441.224
415.939
388.353
358.683
327.185
294.162
259.964
224.957
189.476
153.838
118.344
83.324
49.148
16.158
-15.349
-45.124
-72.98
-98.758
-122.326
-143.618
-162.635
-179.428
-194.107
-206.79
-217.577
-226.581
-233.928
-239.771
-244.31
-247.722
-250.149
-251.729
-252.572
-252.781
-252.466
-251.667
-250.378
-248.586
-246.248
-243.338
-239.846
-235.748
-231.024
-225.667
-219.664
-213.033
-205.836
-198.126
-189.992
-181.542
-172.872
-164.127
-155.461
-147.001
-138.879
-131.208
-124.079
-117.586
-111.805
-106.768
-102.493
-98.972
-96.157
-93.997
-92.399
-91.234
-90.387
-89.73
-89.145
-88.549
-87.863
-87.014
-85.953
-84.639
-83.043
-81.171
-79.032
-76.639
-74.031
-71.256
-68.382
-65.509
-62.716
-60.069
-57.623
-55.405
-53.44
-51.745
-50.32
-49.151
-48.22
-47.498
-46.958
-46.579
-46.326
-46.157
-46.026
-45.872
-45.647
-45.315
-44.844
-44.21
-43.393
-42.376
-41.148
-39.711
-38.061
-36.196
-34.109
-31.793
-29.244
-26.461
-23.446
-20.199
-16.723
-13.018
-9.084
-4.923
-0.537
4.07
8.898
13.945
19.206
24.675
30.343
36.199
42.232
48.433
54.789
61.286
67.912
74.655
81.503
88.444
95.467
102.559
109.708
116.903
124.13
131.38
138.639
145.896
153.14
160.36
167.544
174.682
181.763
188.776
195.711
202.557
209.306
215.947
222.473
228.874
235.145
241.277
247.266
253.105
258.789
264.313
269.673
274.863
279.881
284.72
289.376
293.846
298.124
302.206
306.089
309.767
313.237
316.493
319.533
322.353
324.947
327.313
329.448
331.348
333.011
334.436
335.622
336.567
337.271
337.736
337.961
337.949
337.701
337.221
336.511
335.576
334.42
333.049
331.47
329.69
327.716
325.559
323.226
320.73
318.08
315.29
312.37
309.335
306.198
302.975
299.679
296.327
292.934
289.518
286.094
282.679
279.289
275.941
272.649
269.43
266.297
263.267
260.351
257.563
254.913
252.414
250.075
247.904
245.909
244.095
242.467
241.028
239.781
238.728
237.868
237.201
236.724
236.435
236.331
236.405
236.651
237.061
237.625
238.336
239.182
240.152
241.232
242.412
243.68
245.026
246.439
247.903
249.409
250.946
252.508
254.089
255.682
257.279
258.877
260.474
262.066
263.651
265.221
266.765
268.273
269.737
271.149
272.504
273.787
274.974
276.045
276.988
277.79
278.444
278.939
279.257
279.401
279.386
279.232
278.964
278.594
278.121
277.553
276.889
276.144
275.347
274.512
273.657
272.785
271.866
270.873
269.746
268.382
266.68
264.495
261.638
258.09
253.936
249.341
244.681
240.225
236.079
232.513
229.691
227.344
225.016
221.857
216.592
208.434
196.865
181.185
161.316
137.955
112.295
86.482
63.087
43.996
31.219
27.007
32.585
48.253
73.146
104.91
140.984
179.018
215.518
246.142
266.913
274.113
265.392
239.715
195.774
132.69
51.547
-44.846
-152.485
-266.113
-380.705
-491.232
-591.426
-675.049
-737.29
-774.966
-786.74
-773.538
-737.573
-682.392
-613.547
-537.655
-461.225
-390.253
-329.849
-283.111
-251.406
-234.748
-231.406
-238.361
-252.199
-269.236
-285.663
-299.033
-308.2
-312.734
-313.203
-310.812
-306.873
-303.038
-301.233
-302.549
-307.305
-315.466
-326.468
-339.624
-354.31
-369.687
-384.793
-398.984
-411.91
-423.403
-433.529
-442.338
-449.824
-456.064
-461.176
-465.262
-468.431
-470.776
-472.354
-473.253
-473.607
-473.555
-473.25
-472.834
-472.391
-471.972
-471.606
-471.305
-471.062
-470.863
-470.669
-470.426
-470.082
-469.585
-468.883
-467.928
-466.664
-465.025
-462.952
-460.388
-457.295
-453.653
-449.453
-444.69
-439.364
-433.482
-427.055
-420.103
-412.641
-404.684
-396.245
-387.339
-377.98
-368.191
-357.996
-347.416
-336.471
-325.177
-313.542
-301.582
-289.323
-276.795
-264.033
-251.074
-237.949
-224.699
-211.373
-198.01
-184.646
-171.299
-157.972
-144.678
-131.444
-118.302
-105.303
-92.481
-79.852
-67.43
-55.225
-43.243
-31.502
-19.999
-8.707
2.373
13.213
23.754
33.893
43.554
52.69
61.269
69.281
76.703
83.498
89.641
95.124
99.938
104.074
107.49
110.109
111.895
112.86
113.061
112.614
111.606
110.084
108.081
105.622
102.729
99.425
95.701
91.512
86.817
81.608
75.922
69.841
63.421
56.673
49.576
42.073
34.134
25.769
17.004
7.875
-1.558
-11.199
-20.906
-30.478
-39.72
-48.487
-56.673
-64.207
-71.014
-76.993
-82.028
-85.997
-88.802
-90.362
-90.626
-89.569
-87.204
-83.613
-78.932
-73.357
-67.098
-60.336
-53.233
-45.943
-38.626
-31.453
-24.619
-18.32
-12.741
-8.069
-4.464
-2.049
-0.915
-1.093
-2.565
-5.269
-9.123
-14.037
-19.926
-26.704
-34.264
-42.49
-51.24
-60.35
-69.671
-79.043
-88.325
-97.406
-106.192
-114.614
-122.637
-130.25
-137.452
-144.259
-150.684
-156.734
-162.435
-167.821
-172.94
-177.861
-182.638
-187.321
-191.95
-196.548
-201.132
-205.709
-210.273
-214.802
-219.274
-223.66
-227.938
-232.09
-236.093
-239.92
-243.539
-246.915
-250.02
-252.838
-255.356
-257.57
-259.479
-261.086
-262.404
-263.451
-264.246
-264.809
-265.158
-265.307
-265.274
-265.081
-264.746
-264.291
-263.736
-263.096
-262.387
-261.625
-260.826
-260
-259.161
-258.315
-257.47
-256.636
-255.821
-255.031
-254.273
-253.552
-252.871
-252.233
-251.639
-251.09
-250.584
-250.117
-249.684
-249.28
-248.897
-248.527
-248.162
-247.791
-247.402
-246.987
-246.535
-246.035
-245.478
-244.852
-244.15
-243.363
-242.484
-241.503
-240.41
-239.198
-237.859
-236.389
-234.78
-233.028
-231.129
-229.082
-226.89
-224.556
-222.082
-219.47
-216.721
-213.84
-210.831
-207.699
-204.446
-201.077
-197.597
-194.017
-190.353
-186.626
-182.848
-179.024
-175.155
-171.243
-167.293
-163.307
-159.279
-155.202
-151.071
-146.896
-142.699
-138.508
-134.337
-130.192
-126.067
-121.953
-117.855
-113.789
-109.769
-105.806
-101.914
-98.111
-94.442
-90.961
-87.704
-84.679
-81.864
-79.224
-76.736
-74.387
-72.165
-70.051
-68.014
-66.006
-64.002
-61.982
-59.918
-57.776
-55.487
-52.959
-50.128
-46.953
-43.427
-39.573
-35.407
-30.953
-26.255
-21.369
-16.367
-11.341
-6.341
-1.397
3.452
8.184
12.746
17.05
21.03
24.627
27.795
30.525
32.82
34.695
36.204
37.408
38.384
39.228
39.996
40.702
41.337
41.847
42.192
42.365
42.356
42.162
41.778
41.168
40.285
39.079
37.483
35.422
32.825
29.609
25.74
21.26
16.283
10.997
5.597
0.243
-4.897
-9.625
-13.705
-16.857
-18.794
-19.284
-18.04
-14.704
-8.993
-0.719
10.056
22.925
37.359
52.841
68.786
84.563
99.72
114.06
127.974
142.558
159.074
178.648
202.124
230.037
262.395
298.362
335.72
370.845
399.471
417.302
420.49
405.676
370.259
313.141
235.506
140.855
34.296
-78.182
-190.241
-295.195
-386.349
-458.048
-506.718
-531.038
-531.565
-510.225
-470.137
-415.735
-352.572
-286.338
-221.835
-162.737
-111.519
-69.737
-37.943
-15.433
-0.306
9.905
17.585
24.852
33.143
43.451
56.277
71.395
87.997
104.95
121.036
135.069
146.333
154.42
159.179
160.84
159.799
156.588
151.867
146.339
140.542
134.866
129.606
124.928
120.996
117.929
115.75
114.427
113.907
114.148
115.108
116.742
118.98
121.72
124.862
128.312
131.979
135.768
139.588
143.339
146.923
150.28
153.38
156.214
158.805
161.181
163.377
165.447
167.451
169.45
171.5
173.654
175.953
178.444
181.175
184.195
187.557
191.297
195.438
199.996
204.977
210.379
216.2
222.426
229.037
236.013
243.336
250.99
258.959
267.225
275.763
284.55
293.556
302.753
312.113
321.605
331.198
340.859
350.555
360.257
369.933
379.554
389.085
398.494
407.747
416.811
425.652
434.234
442.522
450.478
458.067
465.254
472.007
478.295
484.089
489.362
494.091
498.254
501.833
504.806
507.153
508.851
509.882
510.235
509.907
508.9
507.225
504.9
501.949
498.4
494.274
489.589
484.354
478.567
472.228
465.337
457.904
449.956
441.515
432.606
423.248
413.458
403.238
392.583
381.479
369.907
357.864
345.368
332.465
319.227
305.741
292.11
278.423
264.749
251.156
237.703
224.454
211.472
198.833
186.622
174.936
163.889
153.569
144.04
135.33
127.425
120.288
113.85
108.055
102.858
98.221
94.115
90.513
87.387
84.702
82.418
80.474
78.792
77.303
75.952
74.709
73.571
72.554
71.698
71.033
70.58
70.351
70.345
70.554
70.962
71.553
72.306
73.213
74.275
75.494
76.867
78.382
80.013
81.726
83.478
85.228
86.94
88.583
90.133
91.575
92.898
94.098
95.175
96.127
96.95
97.64
98.19
98.601
98.874
99.015
99.032
98.932
98.726
98.422
98.03
97.556
97.005
96.384
95.694
94.941
94.129
93.266
92.357
91.412
90.436
89.438
88.426
87.406
86.384
85.367
84.359
83.363
82.383
81.422
80.481
79.562
78.665
77.789
76.932
76.092
75.267
74.452
73.646
72.845
72.047
71.251
70.456
69.663
68.873
68.086
67.304
66.529
65.762
65.004
64.255
63.516
62.788
62.071
61.367
60.68
60.014
59.373
58.761
58.186
57.653
57.172
56.749
56.392
56.108
55.907
55.804
55.814
55.951
56.22
56.626
57.171
57.851
58.657
59.576
60.584
61.656
62.775
63.923
65.089
66.266
67.444
68.615
69.769
70.905
72.034
73.174
74.347
75.582
76.906
78.359
79.992
81.846
83.95
86.322
88.961
91.853
94.969
98.269
101.702
105.2
108.68
112.044
115.181
117.987
120.366
122.224
123.461
123.989
123.736
122.644
120.676
117.821
114.09
109.52
104.163
98.089
91.379
84.136
76.479
68.504
60.285
51.877
43.324
34.665
25.937
17.171
8.381
-0.433
-9.291
-18.237
-27.325
-36.608
-46.124
-55.9
-65.977
-76.378
-87.096
-98.108
-109.352
-120.722
-132.129
-143.519
-154.735
-165.538
-175.569
-184.289
-191.189
-195.92
-198.231
-197.963
-195.247
-190.424
-184.121
-177.382
-171.257
-166.602
-163.945
-163.381
-164.405
-166.129
-167.386
-166.506
-161.603
-150.752
-132.433
-105.916
-71.531
-30.438
15.772
64.666
112.733
155.543
188.362
206.799
207.426
187.744
145.83
80.99
-5.255
-109.29
-225.946
-348.819
-471.128
-586
-686.293
-765.486
-819.306
-845.574
-843.995
-816.763
-767.721
-701.96
-626.121
-547.328
-471.544
-403.861
-348.21
-306.222
-277.985
-262.298
-256.229
-256.173
-258.843
-260.943
-259.842
-254.374
-244.206
-229.787
-212.539
-194.124
-176.147
-160.344
-147.952
-139.446
-134.926
-134.079
-136.229
-140.677
-146.667
-153.346
-160.069
-166.432
-172.123
-176.979
-180.92
-183.867
-185.806
-186.794
-186.863
-186.045
-184.4
-181.986
-178.89
-175.234
-171.13
-166.69
-162.046
-157.327
-152.656
-148.161
-143.924
-139.993
-136.399
-133.147
-130.224
-127.603
-125.236
-123.061
-121.02
-119.053
-117.102
-115.117
-113.041
-110.815
-108.384
-105.696
-102.711
-99.403
-95.752
-91.748
-87.388
-82.671
-77.607
-72.212
-66.498
-60.476
-54.158
-47.554
-40.677
-33.544
-26.172
-18.578
-10.782
-2.803
5.339
13.622
22.024
30.521
39.09
47.705
56.34
64.967
73.555
82.072
90.488
98.771
106.888
114.808
122.498
129.928
137.066
143.884
150.353
156.444
162.132
167.391
172.197
176.527
180.36
183.678
186.462
188.697
190.368
191.462
191.97
191.886
191.204
189.923
188.044
185.57
182.509
178.872
174.671
169.919
164.633
158.831
152.534
145.763
138.541
130.892
122.841
114.419
105.657
96.589
87.25
77.676
67.906
57.978
47.932
37.807
27.638
17.458
7.304
-2.788
-12.779
-22.626
-32.292
-41.748
-50.968
-59.923
-68.597
-76.977
-85.062
-92.866
-100.393
-107.638
-114.588
-121.22
-127.516
-133.462
-139.041
-144.237
-149.036
-153.419
-157.374
-160.904
-163.99
-166.61
-168.717
-170.243
-171.149
-171.426
-171.083
-170.153
-168.681
-166.715
-164.327
-161.611
-158.65
-155.523
-152.294
-149.003
-145.717
-142.52
-139.514
-136.832
-134.569
-132.782
-131.513
-130.78
-130.574
-130.875
-131.621
-132.71
-134.063
-135.617
-137.326
-139.167
-141.1
-143.064
-144.99
-146.794
-148.411
-149.801
-150.928
-151.766
-152.315
-152.589
-152.633
-152.528
-152.332
-152.082
-151.803
-151.499
-151.184
-150.879
-150.6
-150.366
-150.19
-150.08
-150.045
-150.097
-150.235
-150.445
-150.703
-150.967
-151.207
-151.404
-151.547
-151.631
-151.652
-151.605
-151.492
-151.319
-151.089
-150.805
-150.464
-150.062
-149.598
-149.073
-148.491
-147.861
-147.186
-146.47
-145.715
-144.924
-144.097
-143.235
-142.335
-141.392
-140.405
-139.372
-138.291
-137.165
-135.995
-134.782
-133.529
-132.237
-130.911
-129.551
-128.162
-126.743
-125.299
-123.829
-122.339
-120.833
-119.314
-117.789
-116.265
-114.748
-113.247
-111.773
-110.334
-108.94
-107.599
-106.317
-105.104
-103.965
-102.907
-101.934
-101.052
-100.266
-99.583
-99.012
-98.56
-98.233
-98.033
-97.961
-98.019
-98.203
-98.51
-98.934
-99.472
-100.122
-100.892
-101.783
-102.799
-103.935
-105.181
-106.52
-107.931
-109.384
-110.843
-112.277
-113.656
-114.964
-116.195
-117.343
-118.4
-119.349
-120.172
-120.859
-121.411
-121.824
-122.098
-122.254
-122.34
-122.431
-122.625
-122.991
-123.556
-124.357
-125.435
-126.844
-128.67
-130.946
-133.611
-136.639
-140.042
-143.771
-147.76
-151.712
-155.04
-157.345
-158.481
-158.386
-157.144
-154.846
-151.435
-147.423
-143.971
-141.843
-141.419
-142.578
-144.442
-146.31
-147.971
-148.448
-145.882
-138.668
-125.293
-105.334
-80.045
-50.58
-17.575
17.641
52.711
84.554
109.219
123.725
126.988
118.013
95.442
58.1
5.756
-59.916
-135.277
-216.541
-300.663
-384.242
-463.051
-531.934
-585.854
-621.715
-638.551
-636.408
-615.952
-578.883
-528.364
-469.365
-407.814
-348.696
-295.517
-250.872
-216.398
-192.679
-179.085
-173.433
-172.375
-172.751
-172.352
-169.557
-163.458
-153.815
-140.874
-125.607
-109.661
-94.698
-81.78
-71.562
-64.243
-59.641
-57.495
-57.336
-58.446
-60.059
-61.606
-62.705
-63.165
-62.953
-62.036
-60.4
-58.088
-55.174
-51.733
-47.836
-43.552
-38.936
-34.065
-29.04
-23.961
-18.941
-14.1
-9.53
-5.294
-1.428
2.056
5.157
7.877
10.233
12.265
14.021
15.556
16.925
18.177
19.367
20.56
21.826
23.235
24.843
26.69
28.808
31.22
33.948
37.009
40.412
44.156
48.242
52.668
57.437
62.548
68
73.781
79.879
86.279
92.968
99.931
107.151
114.609
122.284
130.154
138.197
146.391
154.709
163.122
171.599
180.108
188.615
197.088
205.491
213.79
221.95
229.938
237.72
245.265
252.541
259.517
266.162
272.449
278.349
283.837
288.887
293.478
297.587
301.198
304.294
306.861
308.89
310.371
311.298
311.669
311.484
310.745
309.456
307.626
305.265
302.385
299.003
295.134
290.799
286.02
280.819
275.223
269.258
262.951
256.332
249.43
242.276
234.903
227.343
219.63
211.796
203.878
195.908
187.922
179.952
172.033
164.196
156.473
148.893
141.486
134.277
127.293
120.557
114.092
107.918
102.054
96.516
91.318
86.473
81.992
77.882
74.149
70.799
67.833
65.253
63.058
61.246
59.812
58.75
58.054
57.714
57.719
58.056
58.712
59.672
60.919
62.437
64.208
66.213
68.436
70.857
73.459
76.223
79.13
82.164
85.305
88.538
91.845
95.211
98.62
102.057
105.509
108.962
112.406
115.827
119.214
122.558
125.848
129.076
132.231
135.307
138.296
141.193
143.993
146.694
149.292
151.787
154.177
156.463
158.647
160.729
162.711
164.594
166.381
168.075
169.678
171.193
172.623
173.971
175.241
176.437
177.561
178.618
179.61
180.543
181.419
182.244
183.022
183.759
184.46
185.132
185.784
186.422
187.054
187.688
188.329
188.984
189.659
190.359
191.086
191.844
192.635
193.465
194.339
195.265
196.248
197.294
198.413
199.612
200.901
202.287
203.772
205.361
207.058
208.87
210.807
212.874
215.07
217.389
219.827
222.375
225.022
227.751
230.531
233.335
236.136
238.919
241.683
244.421
247.125
249.787
252.393
254.945
257.465
259.965
262.454
264.95
267.464
270.029
272.703
275.52
278.508
281.675
284.995
288.446
292.012
295.661
299.365
303.079
306.725
310.236
313.557
316.613
319.34
321.641
323.387
324.479
324.832
324.384
323.118
321.028
318.107
314.37
309.836
304.523
298.491
291.8
284.511
276.716
268.506
260.018
251.429
242.917
234.664
226.836
219.55
212.903
206.985
201.867
197.628
194.358
192.117
190.941
190.85
191.831
193.849
196.81
200.573
204.946
209.71
214.686
219.718
224.667
229.396
233.757
237.596
240.798
243.245
244.808
245.491
245.394
244.77
244.1
243.869
244.494
246.362
249.746
254.567
260.525
267.023
273.051
277.659
280.1
279.987
277.422
273.163
268.429
264.731
264.092
268.694
280.621
301.374
331.532
370.496
416.722
468.202
522.015
574.183
619.948
654.399
673.207
673.251
652.373
609.076
543.268
456.904
353.947
239.814
120.494
1.984
-109.581
-208.147
-288.573
-347.608
-384.169
-398.729
-392.918
-369.694
-333.231
-288.506
-240.814
-194.507
-152.791
-118.522
-93.759
-79.055
-73.85
-76.564
-84.747
-96.363
-109.606
-122.18
-132.275
-139.056
-142.248
-142.336
-140.385
-137.164
-133.535
-130.797
-129.868
-131.202
-134.968
-140.844
-148.313
-156.994
-166.395
-175.858
-184.89
-193.12
-200.311
-206.453
-211.568
-215.654
-218.752
-220.925
-222.222
-222.707
-222.437
-221.452
-219.808
-217.573
-214.829
-211.673
-208.218
-204.583
-200.852
-197.078
-193.297
-189.52
-185.754
-182.004
-178.253
-174.468
-170.615
-166.661
-162.577
-158.339
-153.914
-149.259
-144.329
-139.076
-133.465
-127.477
-121.096
-114.313
-107.121
-99.52
-91.518
-83.131
-74.372
-65.253
-55.787
-45.982
-35.855
-25.425
-14.714
-3.744
7.462
18.879
30.483
42.245
54.138
66.132
78.199
90.309
102.431
114.531
126.573
138.521
150.338
161.986
173.428
184.625
195.539
206.134
216.374
226.226
235.656
244.633
253.127
261.11
268.556
275.442
281.746
287.448
292.533
296.985
300.795
303.954
306.457
308.301
309.49
310.026
309.918
309.176
307.814
305.849
303.299
300.188
296.54
292.381
287.743
282.656
277.155
271.276
265.056
258.533
251.747
244.738
237.547
230.214
222.781
215.286
207.771
200.274
192.834
185.489
178.274
171.225
164.373
157.748
151.379
145.292
139.509
134.05
128.933
124.173
119.781
115.767
112.136
108.892
106.035
103.564
101.472
99.752
98.394
97.385
96.708
96.348
96.285
96.499
96.967
97.666
98.572
99.659
100.902
102.273
103.747
105.295
106.891
108.508
110.121
111.705
113.235
114.689
116.045
117.284
118.386
119.336
120.118
120.717
121.122
121.322
121.308
121.074
120.613
119.922
119
117.844
116.456
114.836
112.989
110.916
108.623
106.114
103.393
100.468
97.343
94.026
90.521
86.837
82.978
78.95
74.759
70.409
65.903
61.245
56.435
51.475
46.365
41.104
35.689
30.119
24.389
18.496
12.433
6.196
-0.224
-6.832
-13.638
-20.649
-27.873
-35.32
-42.996
-50.911
-59.071
-67.484
-76.155
-85.091
-94.297
-103.775
-113.53
-123.564
-133.878
-144.47
-155.34
-166.484
-177.898
-189.573
-201.504
-213.679
-226.088
-238.718
-251.554
-264.581
-277.782
-291.137
-304.628
-318.233
-331.93
-345.695
-359.503
-373.33
-387.149
-400.935
-414.659
-428.296
-441.819
-455.201
-468.415
-481.435
-494.236
-506.791
-519.077
-531.069
-542.743
-554.078
-565.051
-575.642
-585.834
-595.607
-604.945
-613.833
-622.259
-630.208
-637.672
-644.639
-651.103
-657.056
-662.494
-667.413
-671.812
-675.689
-679.046
-681.884
-684.209
-686.023
-687.334
-688.148
-688.471
-688.314
-687.684
-686.592
-685.047
-683.062
-680.648
-677.818
-674.585
-670.962
-666.964
-662.606
-657.901
-652.865
-647.512
-641.859
-635.92
-629.711
-623.247
-616.545
-609.618
-602.483
-595.156
-587.651
-579.985
-572.171
-564.225
-556.16
-547.991
-539.733
-531.398
-523.002
-514.557
-506.078
-497.581
-489.079
-480.587
-472.118
-463.687
-455.307
-446.992
-438.755
-430.608
-422.561
-414.627
-406.818
-399.145
-391.618
-384.249
-377.048
-370.027
-363.196
-356.563
-350.136
-343.921
-337.923
-332.148
-326.599
-321.276
-316.181
-311.316
-306.679
-302.272
-298.089
-294.122
-290.364
-286.805
-283.436
-280.251
-277.239
-274.384
-271.678
-269.112
-266.685
-264.396
-262.236
-260.19
-258.245
-256.39
-254.617
-252.92
-251.277
-249.652
-248.006
-246.304
-244.521
-242.644
-240.648
-238.494
-236.141
-233.562
-230.758
-227.742
-224.522
-221.073
-217.364
-213.397
-209.223
-204.957
-200.735
-196.68
-192.876
-189.405
-186.396
-183.902
-181.869
-180.116
-178.308
-176.119
-173.37
-169.99
-165.915
-161.377
-156.87
-152.919
-150.218
-149.372
-150.648
-154.107
-159.699
-166.569
-173.149
-177.951
-179.387
-176.093
-167.263
-152.09
-129.698
-100.416
-65.803
-27.561
12.282
51.887
90.012
124.68
152.996
172.751
182.683
181.927
170.219
147.045
111.221
62.947
4.342
-61.882
-132.739
-205.402
-277.377
-345.248
-404.375
-451.027
-483.338
-500.646
-503.297
-491.632
-466.027
-428.425
-382.482
-332.073
-280.311
-229.538
-181.601
-138.792
-103.433
-76.475
-57.497
-45.332
-38.722
-36.685
-38.069
-40.962
-43.41
-44.248
-43.024
-39.904
-35.309
-29.529
-23.112
-17.101
-12.388
-9.431
-8.351
-8.887
-10.63
-13.239
-16.264
-19.095
-21.301
-22.661
-23.082
-22.648
-21.464
-19.59
-17.133
-14.245
-11.034
-7.58
-3.959
-0.21
3.588
7.31
10.857
14.161
17.174
19.887
22.3
24.41
26.24
27.834
29.234
30.489
31.636
32.705
33.733
34.769
35.863
37.077
38.459
40.045
41.863
43.933
46.271
48.891
51.799
54.993
58.471
62.234
66.282
70.619
75.243
80.146
85.316
90.743
96.415
102.327
108.475
114.852
121.442
128.226
135.178
142.268
149.464
156.732
164.028
171.316
178.566
185.758
192.886
199.947
206.924
213.794
220.523
227.074
233.431
239.582
245.516
251.24
256.757
262.077
267.234
272.242
277.088
281.742
286.139
290.197
293.862
297.094
299.867
302.165
303.955
305.203
305.888
305.972
305.418
304.183
302.192
299.393
295.784
291.386
286.273
280.544
274.274
267.527
260.365
252.838
245.003
236.921
228.632
220.185
211.642
203.073
194.581
186.254
178.141
170.271
162.64
155.218
147.995
140.968
134.125
127.47
121.007
114.741
108.695
102.892
97.343
92.045
86.981
82.134
77.502
73.093
68.921
65.013
61.385
58.049
55.023
52.312
49.917
47.834
46.047
44.536
43.285
42.28
41.511
40.97
40.643
40.514
40.567
40.785
41.15
41.642
42.243
42.933
43.695
44.515
45.381
46.283
47.21
48.153
49.103
50.051
50.988
51.907
52.802
53.664
54.488
55.271
56.01
56.703
57.35
57.951
58.507
59.02
59.493
59.928
60.33
60.7
61.042
61.359
61.655
61.933
62.197
62.449
62.694
62.936
63.176
63.42
63.668
63.924
64.189
64.464
64.751
65.047
65.355
65.672
65.997
66.33
66.669
67.01
67.352
67.691
68.024
68.346
68.653
68.94
69.203
69.437
69.638
69.803
69.928
70.009
70.045
70.034
69.972
69.859
69.693
69.474
69.2
68.872
68.49
68.055
67.568
67.033
66.451
65.828
65.166
64.471
63.749
63.004
62.243
61.472
60.698
59.928
59.171
58.433
57.723
57.049
56.419
55.84
55.32
54.866
54.483
54.177
53.954
53.818
53.773
53.822
53.969
54.216
54.565
55.017
55.573
56.233
56.997
57.861
58.825
59.884
61.036
62.276
63.599
65
66.473
68.011
69.609
71.258
72.952
74.682
76.44
78.218
80.008
81.802
83.593
85.374
87.138
88.879
90.591
92.27
93.91
95.507
97.059
98.561
100.012
101.41
102.753
104.04
105.273
106.45
107.574
108.647
109.669
110.644
111.575
112.466
113.319
114.139
114.931
115.7
116.45
117.186
117.915
118.64
119.368
120.103
120.85
121.613
122.395
123.2
124.031
124.89
125.779
126.699
127.651
128.636
129.653
130.701
131.779
132.887
134.021
135.179
136.36
137.56
138.775
140.004
141.242
142.486
143.732
144.977
146.216
147.446
148.664
149.864
151.044
152.201
153.33
154.431
155.499
156.534
157.534
158.498
159.426
160.317
161.174
161.997
162.787
163.548
164.281
164.991
165.68
166.352
167.012
167.662
168.308
168.954
169.602
170.258
170.926
171.608
172.308
173.029
173.775
174.548
175.351
176.185
177.052
177.954
178.892
179.865
180.873
181.917
182.995
184.105
185.244
186.41
187.599
188.808
190.032
191.265
192.504
193.742
194.973
196.192
197.393
198.569
199.716
200.826
201.896
202.919
203.893
204.814
205.677
206.482
207.226
207.908
208.527
209.083
209.577
210.01
210.384
210.702
210.967
211.184
211.355
211.488
211.588
211.662
211.715
211.756
211.793
211.832
211.885
211.958
212.062
212.206
212.401
212.655
212.98
213.384
213.876
214.465
215.158
215.962
216.882
217.924
219.09
220.385
221.812
223.37
225.062
226.887
228.845
230.932
233.148
235.487
237.947
240.521
243.205
245.994
248.883
251.864
254.932
258.079
261.299
264.585
267.927
271.316
274.743
278.196
281.667
285.146
288.623
292.09
295.541
298.971
302.374
305.748
309.088
312.39
315.651
318.867
322.033
325.145
328.198
331.189
334.113
336.966
339.743
342.437
345.039
347.54
349.93
352.201
354.342
356.342
358.197
359.904
361.465
362.889
364.175
365.324
366.336
367.21
367.946
368.539
368.969
369.206
369.216
368.963
368.408
367.513
366.218
364.463
362.179
359.301
355.788
351.609
346.725
341.092
334.659
327.404
319.369
310.648
301.354
291.611
281.53
271.267
261.083
251.159
241.537
232.099
222.484
212.339
201.502
189.788
176.908
162.841
147.92
132.901
119.14
107.937
100.023
95.906
96.001
99.995
106.587
113.514
117.446
114.88
103.103
79.753
42.496
-9.874
-76.778
-156.113
-244.14
-336.317
-428.571
-516.62
-595.282
-660.105
-708.382
-738.748
-751.638
-748.633
-731.118
-701.422
-663.776
-622.596
-581.556
-543.932
-511.582
-485.572
-467.429
-457.713
-455.24
-458.325
-465.104
-473.473
-482.378
-491.189
-498.713
-504.371
-508.39
-511.226
-513.844
-517.421
-522.353
-528.714
-536.754
-546.33
-557.163
-568.934
-580.9
-592.255
-602.554
-611.525
-619.005
-625.003
-629.482
-632.403
-633.883
-634.078
-633.138
-631.206
-628.373
-624.727
-620.394
-615.527
-610.312
-604.899
-599.387
-593.844
-588.309
-582.804
-577.358
-571.977
-566.634
-561.303
-555.949
-550.54
-545.059
-539.473
-533.74
-527.811
-521.629
-515.152
-508.359
-501.241
-493.794
-486.022
-477.931
-469.533
-460.854
-451.914
-442.729
-433.314
-423.677
-413.834
-403.802
-393.602
-383.252
-372.769
-362.17
-351.468
-340.679
-329.816
-318.893
-307.921
-296.91
-285.874
-274.829
-263.79
-252.776
-241.803
-230.89
-220.054
-209.315
-198.692
-188.203
-177.864
-167.695
-157.714
-147.938
-138.387
-129.079
-120.033
-111.266
-102.796
-94.64
-86.815
-79.338
-72.221
-65.481
-59.129
-53.178
-47.639
-42.522
-37.836
-33.587
-29.782
-26.425
-23.521
-21.069
-19.07
-17.522
-16.422
-15.765
-15.546
-15.756
-16.385
-17.423
-18.858
-20.675
-22.859
-25.393
-28.258
-31.434
-34.9
-38.634
-42.612
-46.81
-51.203
-55.765
-60.471
-65.295
-70.209
-75.188
-80.206
-85.237
-90.254
-95.233
-100.149
-104.978
-109.698
-114.286
-118.722
-122.985
-127.056
-130.918
-134.554
-137.95
-141.091
-143.966
-146.564
-148.876
-150.895
-152.615
-154.034
-155.15
-155.961
-156.47
-156.679
-156.593
-156.217
-155.559
-154.625
-153.426
-151.971
-150.271
-148.337
-146.183
-143.82
-141.263
-138.523
-135.616
-132.556
-129.355
-126.029
-122.591
-119.056
-115.438
-111.75
-108.006
-104.219
-100.402
-96.567
-92.725
-88.888
-85.064
-81.263
-77.493
-73.762
-70.076
-66.44
-62.86
-59.34
-55.882
-52.49
-49.166
-45.909
-42.72
-39.6
-36.546
-33.558
-30.634
-27.771
-24.967
-22.219
-19.524
-16.878
-14.276
-11.715
-9.19
-6.696
-4.228
-1.782
0.649
3.069
5.482
7.894
10.309
12.73
15.163
17.611
20.077
22.566
25.08
27.622
30.194
32.799
35.437
38.111
40.82
43.565
46.346
49.162
52.014
54.899
57.818
60.769
63.749
66.758
69.791
72.847
75.923
79.014
82.118
85.23
88.348
91.467
94.583
97.694
100.795
103.882
106.952
110
113.023
116.017
118.978
121.901
124.785
127.624
130.417
133.161
135.854
138.493
141.077
143.605
146.074
148.484
150.835
153.126
155.356
157.527
159.641
161.697
163.698
165.647
167.545
169.395
171.201
172.963
174.686
176.373
178.026
179.651
181.25
182.828
184.389
185.939
187.481
189.021
190.563
192.112
193.671
195.246
196.841
198.458
200.103
201.778
203.488
205.236
207.024
208.855
210.732
212.656
214.628
216.65
218.723
220.846
223.02
225.245
227.521
229.847
232.223
234.648
237.121
239.64
242.202
244.805
247.447
250.123
252.832
255.568
258.33
261.112
263.912
266.725
269.548
272.378
275.21
278.04
280.866
283.682
286.487
289.276
292.047
294.796
297.521
300.219
302.888
305.526
308.129
310.695
313.222
315.709
318.153
320.552
322.906
325.214
327.474
329.688
331.856
333.977
336.053
338.086
340.077
342.027
343.939
345.815
347.658
349.469
351.253
353.011
354.748
356.465
358.167
359.858
361.54
363.219
364.897
366.58
368.273
369.979
371.705
373.455
375.234
377.048
378.902
380.802
382.753
384.758
386.823
388.95
391.145
393.409
395.745
398.154
400.636
403.193
405.823
408.526
411.3
414.142
417.05
420.02
423.048
426.126
429.25
432.411
435.599
438.806
442.019
445.228
448.417
451.574
454.681
457.723
460.682
463.54
466.276
468.87
471.3
473.546
475.584
477.392
478.949
480.23
481.214
481.88
482.207
482.173
481.757
480.94
479.702
478.024
475.886
473.269
470.158
466.536
462.391
457.711
452.49
446.72
440.399
433.529
426.113
418.154
409.659
400.631
391.08
381.02
370.467
359.441
347.963
336.058
323.757
311.091
298.09
284.783
271.189
257.329
243.229
228.921
214.439
199.829
185.135
170.404
155.696
141.065
126.567
112.249
98.141
84.27
70.671
57.381
44.45
31.92
19.812
8.142
-3.085
-13.891
-24.3
-34.362
-44.153
-53.722
-63.128
-72.437
-81.702
-90.985
-100.363
-109.865
-119.543
-129.482
-139.631
-149.862
-159.938
-169.426
-177.927
-185.152
-190.835
-194.801
-197.189
-198.324
-198.804
-199.598
-201.588
-205.458
-211.574
-219.845
-229.585
-239.664
-248.667
-254.738
-255.889
-250.172
-236.107
-213.039
-181.388
-142.454
-97.961
-50.397
-3.22
39.278
72.532
92.603
96.614
82.105
47.325
-8.033
-82.814
-171.811
-268.633
-369.85
-469.879
-566.302
-657.621
-732.877
-787.145
-816.103
-811.452
-781.028
-729.756
-661.47
-593.414
-530.607
-478.157
-444.679
-422.529
-408.784
-401.371
-392.191
-383.328
-375.843
-368.199
-362.599
-357.049
-348.884
-338.49
-326.062
-312.891
-301.211
-291.795
-284.641
-279.932
-277.696
-277.799
-280.092
-284.07
-288.835
-293.821
-298.729
-303.238
-307.211
-310.516
-312.976
-314.573
-315.388
-315.471
-314.884
-313.693
-311.927
-309.669
-307.027
-304.095
-300.996
-297.841
-294.741
-291.838
-289.238
-287.019
-285.236
-283.909
-283.039
-282.628
-282.642
-283.02
-283.698
-284.589
-285.622
-286.746
-287.902
-289.041
-290.112
-291.056
-291.831
-292.411
-292.774
-292.912
-292.815
-292.465
-291.872
-291.064
-290.085
-289.008
-287.873
-286.683
-285.432
-284.087
-282.611
-280.971
-279.114
-276.966
-274.471
-271.579
-268.268
-264.547
-260.398
-255.782
-250.639
-244.872
-238.425
-231.291
-223.477
-215.023
-205.977
-196.379
-186.309
-175.879
-165.165
-154.215
-143.039
-131.584
-119.844
-107.85
-95.657
-83.367
-71.058
-58.776
-46.575
-34.507
-22.624
-10.999
0.324
11.334
21.964
32.106
41.6
50.218
57.785
64.176
69.292
73.078
75.481
76.443
75.943
73.99
70.609
65.849
59.757
52.362
43.756
34.072
23.494
12.268
0.596
-11.363
-23.459
-35.573
-47.593
-59.407
-70.941
-82.152
-93.004
-103.47
-113.523
-123.126
-132.278
-141.005
-149.36
-157.422
-165.247
-172.862
-180.29
-187.538
-194.609
-201.506
-208.209
-214.68
-220.888
-226.808
-232.417
-237.703
-242.645
-247.21
-251.367
-255.079
-258.324
-261.092
-263.382
-265.195
-266.543
-267.439
-267.907
-267.979
-267.686
-267.052
-266.105
-264.865
-263.36
-261.619
-259.67
-257.541
-255.259
-252.849
-250.335
-247.741
-245.089
-242.398
-239.687
-236.971
-234.267
-231.591
-228.96
-226.386
-223.885
-221.465
-219.137
-216.91
-214.788
-212.775
-210.873
-209.083
-207.402
-205.829
-204.359
-202.988
-201.711
-200.521
-199.411
-198.375
-197.404
-196.491
-195.628
-194.808
-194.022
-193.264
-192.524
-191.796
-191.072
-190.345
-189.607
-188.85
-188.069
-187.255
-186.403
-185.506
-184.559
-183.557
-182.496
-181.372
-180.183
-178.925
-177.597
-176.199
-174.73
-173.191
-171.583
-169.907
-168.166
-166.361
-164.495
-162.571
-160.592
-158.559
-156.476
-154.345
-152.168
-149.947
-147.686
-145.385
-143.047
-140.675
-138.271
-135.836
-133.373
-130.885
-128.374
-125.841
-123.289
-120.719
-118.135
-115.538
-112.929
-110.311
-107.686
-105.054
-102.418
-99.777
-97.133
-94.485
-91.835
-89.181
-86.524
-83.864
-81.2
-78.534
-75.864
-73.192
-70.519
-67.844
-65.17
-62.497
-59.826
-57.158
-54.496
-51.84
-49.191
-46.553
-43.926
-41.312
-38.713
-36.13
-33.565
-31.02
-28.496
-25.993
-23.514
-21.061
-18.634
-16.236
-13.869
-11.536
-9.24
-6.983
-4.768
-2.598
-0.476
1.595
3.613
5.576
7.481
9.326
11.11
12.831
14.489
16.082
17.61
19.073
20.472
