Name
Date of Birth,"Aug 26, 1996"
Recorded Date,2019-02-05 19:19:09 -0500
Classification,Sinus Rhythm
Symptoms,
Software Version,1.2
Device,"Watch4,2"
Sample Rate,512.352 hertz


Lead,Lead I
Unit,µV

42.593
45.346
46.764
46.74
45.188
42.023
37.183
30.638
22.417
12.617
1.363
-11.201
-24.905
-39.537
-54.855
-70.585
-86.447
-102.204
-117.657
-132.624
-146.957
-160.507
-173.127
-184.696
-195.123
-204.334
-212.283
-218.928
-224.236
-228.212
-230.876
-232.272
-232.466
-231.505
-229.412
-226.205
-221.881
-216.424
-209.857
-202.207
-193.511
-183.837
-173.249
-161.829
-149.681
-136.914
-123.651
-110.021
-96.137
-82.114
-68.096
-54.243
-40.743
-27.817
-15.633
-4.326
5.992
15.249
23.385
30.356
36.167
40.86
44.507
47.203
49.039
50.105
50.529
50.465
50.098
49.637
49.243
49.034
49.112
49.557
50.444
51.839
53.769
56.212
59.127
62.463
66.153
70.129
74.293
78.518
82.675
86.644
90.348
93.754
96.847
99.61
102.039
104.14
105.935
107.486
108.859
110.125
111.385
112.755
114.36
116.345
118.829
121.893
125.59
129.936
134.911
140.488
146.614
153.21
160.194
167.457
174.88
182.331
189.63
196.577
202.977
208.636
213.38
217.071
219.576
220.787
220.65
219.143
216.284
212.132
206.745
200.21
192.643
184.193
175.058
165.46
155.6
145.683
135.907
126.465
117.571
109.42
102.158
95.888
90.678
86.564
83.578
81.726
80.975
81.254
82.451
84.444
87.127
90.391
94.118
98.176
102.407
106.661
110.828
114.825
118.587
122.056
125.173
127.888
130.183
132.071
133.586
134.772
135.66
136.291
136.717
137
137.226
137.471
137.786
138.208
138.768
139.508
140.483
141.764
143.4
145.418
147.822
150.603
153.748
157.225
160.985
164.954
169.042
173.159
177.227
181.179
184.945
188.444
191.578
194.223
196.263
197.607
198.187
197.957
196.889
194.983
192.276
188.846
184.803
180.273
175.386
170.274
165.082
159.949
155.018
150.45
146.404
143.021
140.427
138.726
138.005
138.323
139.709
142.141
145.551
149.84
154.88
160.524
166.609
172.995
179.557
186.17
192.71
199.051
205.083
210.704
215.821
220.348
224.203
227.337
229.754
231.503
232.667
233.356
233.693
233.765
233.649
233.407
233.097
232.787
232.531
232.376
232.384
232.628
233.193
234.153
235.526
237.275
239.342
241.646
244.1
246.64
249.196
251.709
254.142
256.448
258.591
260.534
262.203
263.512
264.363
264.663
264.374
263.512
262.102
260.194
257.857
255.157
252.191
249.039
245.75
242.373
238.96
235.577
232.335
229.356
226.761
224.677
223.203
222.394
222.289
222.889
224.155
226.029
228.417
231.24
234.449
237.999
241.839
245.89
250.04
254.171
258.152
261.837
265.069
267.7
269.615
270.742
271.052
270.554
269.276
267.238
264.449
260.907
256.602
251.555
245.786
239.31
232.174
224.443
216.228
207.686
198.927
190.022
181.021
171.913
162.688
153.371
143.939
134.372
124.794
115.406
106.543
98.709
92.29
87.582
84.945
84.595
86.426
90.04
94.638
99.276
103.392
106.627
108.515
108.862
108.054
107.204
108.177
112.773
122.082
136.96
158.575
187.911
225.163
269.535
319.239
372.632
428.697
484.812
536.272
578.845
609.709
630.472
645.783
655.559
655.203
635.875
587.471
507.457
398.176
265.373
120.943
-22.215
-147.45
-235.443
-276.954
-272.18
-230.081
-167.919
-99.255
-32.115
25.241
65.812
85.968
83.125
62.039
36.074
13.939
0.588
-2.957
-3.457
-4.347
-4.648
-3.432
1.678
11.266
23.08
34.919
45.647
54.665
61.709
66.841
69.983
71.183
71.034
70.219
69.087
67.863
66.665
65.488
64.442
63.658
63.152
62.919
62.967
63.314
64.024
65.165
66.762
68.804
71.26
74.087
77.242
80.68
84.348
88.186
92.135
96.145
100.164
104.149
108.074
111.917
115.663
119.311
122.861
126.314
129.677
132.958
136.174
139.348
142.511
145.699
148.938
152.247
155.643
159.145
162.764
166.505
170.361
174.312
178.357
182.512
186.813
191.296
195.982
200.877
205.983
211.293
216.812
222.548
228.505
234.682
241.086
247.721
254.6
261.763
269.216
276.927
284.835
292.854
300.894
308.921
316.903
324.745
332.363
339.678
346.607
353.149
359.322
365.046
370.206
374.917
379.349
383.399
387.107
390.551
393.353
396.685
401.685
406.793
411.546
413.04
407.789
399.66
391.229
386.33
390.213
398.178
406.217
411.537
409.584
403.48
396.372
388.907
382.997
377.419
370.642
362.886
353.893
343.721
332.644
320.465
307.076
292.599
277.136
260.791
243.688
225.971
207.798
189.339
170.763
152.199
133.777
115.676
98.103
81.259
65.327
50.455
36.736
24.244
13.027
3.097
-5.548
-12.93
-19.087
-24.052
-27.854
-30.523
-32.119
-32.751
-32.577
-31.776
-30.531
-29.003
-27.331
-25.649
-24.063
-22.655
-21.485
-20.586
-19.992
-19.75
-19.914
-20.551
-21.699
-23.35
-25.463
-27.976
-30.806
-33.884
-37.137
-40.475
-43.837
-47.182
-50.49
-53.768
-57.014
-60.208
-63.325
-66.325
-69.186
-71.913
-74.518
-77.021
-79.454
-81.847
-84.24
-86.689
-89.226
-91.864
-94.605
-97.437
-100.355
-103.374
-106.51
-109.779
-113.189
-116.734
-120.411
-124.225
-128.171
-132.243
-136.431
-140.718
-145.103
-149.605
-154.235
-158.996
-163.875
-168.842
-173.867
-178.922
-183.987
-189.044
-194.068
-199.028
-203.894
-208.636
-213.22
-217.598
-221.709
-225.471
-228.828
-231.748
-234.216
-236.231
-237.794
-238.902
-239.55
-239.74
-239.481
-238.782
-237.659
-236.141
-234.281
-232.157
-229.882
-227.574
-225.332
-223.231
-221.331
-219.688
-218.36
-217.403
-216.873
-216.817
-217.281
-218.324
-219.988
-222.278
-225.17
-228.597
-232.449
-236.621
-241.014
-245.526
-250.081
-254.599
-259.002
-263.229
-267.213
-270.891
-274.194
-277.031
-279.335
-281.078
-282.261
-282.926
-283.15
-283.008
-282.585
-281.985
-281.288
-280.564
-279.876
-279.263
-278.765
-278.432
-278.318
-278.488
-278.998
-279.874
-281.128
-282.753
-284.715
-286.978
-289.49
-292.177
-294.982
-297.866
-300.793
-303.75
-306.722
-309.685
-312.615
-315.488
-318.278
-320.966
-323.537
-325.976
-328.278
-330.445
-332.488
-334.429
-336.28
-338.046
-339.727
-341.316
-342.805
-344.187
-345.455
-346.597
-347.608
-348.48
-349.213
-349.807
-350.261
-350.573
-350.738
-350.753
-350.612
-350.318
-349.871
-349.274
-348.531
-347.648
-346.633
-345.498
-344.253
-342.907
-341.47
-339.952
-338.362
-336.713
-335.014
-333.278
-331.516
-329.739
-327.961
-326.194
-324.452
-322.748
-321.092
-319.497
-317.974
-316.533
-315.183
-313.933
-312.79
-311.759
-310.848
-310.06
-309.4
-308.87
-308.473
-308.208
-308.077
-308.078
-308.209
-308.465
-308.843
-309.337
-309.941
-310.647
-311.448
-312.333
-313.293
-314.317
-315.391
-316.505
-317.644
-318.795
-319.944
-321.077
-322.181
-323.242
-324.246
-325.179
-326.026
-326.774
-327.408
-327.917
-328.286
-328.504
-328.557
-328.435
-328.131
-327.636
-326.94
-326.034
-324.905
-323.547
-321.96
-320.144
-318.107
-315.856
-313.404
-310.771
-307.983
-305.065
-302.037
-298.915
-295.708
-292.432
-289.105
-285.751
-282.395
-279.052
-275.724
-272.41
-269.108
-265.797
-262.452
-259.027
-255.464
-251.722
-247.779
-243.623
-239.262
-234.697
-229.925
-224.941
-219.745
-214.343
-208.757
-203.012
-197.14
-191.203
-185.281
-179.483
-173.93
-168.71
-163.883
-159.488
-155.541
-152.051
-149.044
-146.54
-144.565
-143.17
-142.392
-142.262
-142.802
-143.978
-145.74
-148.033
-150.792
-153.987
-157.615
-161.647
-166.127
-171.173
-176.759
-182.742
-188.824
-194.473
-199.258
-202.939
-205.19
-205.608
-204.04
-200.631
-196.001
-191.272
-187.211
-184.002
-181.664
-180.27
-179.777
-179.692
-178.675
-174.573
-165.567
-150.76
-129.706
-101.689
-65.833
-21.823
29.91
87.826
150.127
215.971
282.856
345.646
399.642
440.126
467.627
488.925
506.38
519.434
518.345
483.723
404.169
273.233
98.034
-94.928
-279.132
-425.153
-508.811
-527.85
-489.105
-409.226
-316.502
-230.174
-161.223
-116.854
-89.651
-69.901
-54.807
-40.305
-28.449
-25.808
-32.502
-47.102
-67.011
-86.229
-101.145
-110.776
-114.531
-113.138
-108.105
-100.649
-92.069
-84.04
-77.694
-73.44
-71.491
-71.664
-73.434
-76.343
-79.829
-83.189
-86.019
-88.166
-89.531
-90.154
-90.087
-89.325
-87.928
-86.012
-83.642
-80.877
-77.778
-74.374
-70.717
-66.879
-62.918
-58.885
-54.815
-50.721
-46.615
-42.518
-38.446
-34.412
-30.423
-26.47
-22.541
-18.622
-14.685
-10.7
-6.639
-2.472
1.824
6.268
10.878
15.66
20.621
25.766
31.103
36.637
42.377
48.329
54.5
60.897
67.521
74.367
81.429
88.697
96.157
103.796
111.591
119.515
127.549
135.671
143.863
152.111
160.393
168.687
176.976
185.235
193.447
201.607
209.709
217.753
225.754
233.722
241.68
249.658
257.672
265.723
273.811
281.917
290.026
298.118
306.157
314.108
321.925
329.545
336.902
343.92
350.496
356.535
361.938
366.595
370.424
373.363
375.354
376.368
376.382
375.381
373.377
370.392
366.454
361.615
355.935
349.492
342.396
334.75
326.655
318.223
309.541
300.685
291.73
282.728
273.725
264.761
255.862
247.046
238.335
229.737
221.25
212.867
204.556
196.292
188.064
179.854
171.657
163.478
155.32
147.196
139.133
131.152
123.278
115.54
107.958
100.557
93.366
86.415
79.739
73.369
67.326
61.629
56.294
51.329
46.742
42.535
38.702
35.236
32.134
29.387
26.99
24.937
23.214
21.813
20.718
19.917
19.397
19.145
19.145
19.385
19.848
20.521
21.389
22.438
23.651
25.012
26.502
28.104
29.799
31.571
33.4
35.27
37.162
39.061
40.952
42.819
44.648
46.426
48.14
49.778
51.329
52.784
54.132
55.366
56.477
57.46
58.309
59.019
59.587
60.009
60.283
60.409
60.386
60.215
59.898
59.435
58.832
58.092
57.22
56.222
55.104
53.874
52.538
51.106
49.585
47.985
46.314
44.58
42.794
40.964
39.101
37.212
35.309
33.399
31.493
29.599
27.726
25.882
24.075
22.313
20.603
18.951
17.364
15.847
14.406
13.046
11.77
10.583
9.487
8.484
7.575
6.763
6.046
5.425
4.899
4.467
4.126
3.876
3.714
3.635
3.638
3.717
3.868
4.086
4.365
4.701
5.086
5.514
5.979
6.474
6.992
7.527
8.072
8.62
9.164
9.699
10.217
10.713
11.181
11.616
12.014
12.37
12.681
12.943
13.153
13.308
13.405
13.444
13.421
13.336
13.187
12.974
12.698
12.358
11.956
11.494
10.973
10.397
9.768
9.089
8.365
7.6
6.798
5.964
5.102
4.218
3.316
2.401
1.478
0.551
-0.376
-1.3
-2.219
-3.128
-4.026
-4.91
-5.78
-6.631
-7.464
-8.277
-9.069
-9.839
-10.587
-11.313
-12.016
-12.697
-13.357
-13.996
-14.617
-15.22
-15.807
-16.379
-16.939
-17.489
-18.031
-18.567
-19.101
-19.634
-20.167
-20.702
-21.241
-21.782
-22.325
-22.87
-23.416
-23.959
-24.498
-25.031
-25.554
-26.065
-26.561
-27.038
-27.492
-27.919
-28.314
-28.672
-28.989
-29.259
-29.478
-29.641
-29.743
-29.78
-29.748
-29.641
-29.456
-29.189
-28.834
-28.389
-27.85
-27.214
-26.478
-25.642
-24.705
-23.668
-22.531
-21.297
-19.968
-18.547
-17.036
-15.439
-13.759
-11.998
-10.161
-8.252
-6.275
-4.237
-2.142
0.001
2.187
4.407
6.653
8.919
11.198
13.487
15.781
18.074
20.362
22.642
24.911
27.164
29.396
31.598
33.763
35.888
37.969
40.008
42.003
43.947
45.836
47.666
49.431
51.123
52.724
54.211
55.565
56.776
57.842
58.771
59.571
60.248
60.81
61.271
61.648
61.966
62.239
62.47
62.667
62.844
63.037
63.302
63.684
64.202
64.868
65.683
66.649
67.77
69.035
70.411
71.859
73.347
74.861
76.42
78.05
79.756
81.52
83.292
85.018
86.675
88.247
89.71
91.045
92.214
93.178
93.923
94.426
94.638
94.525
93.961
92.74
90.752
87.976
84.584
80.998
77.553
74.417
71.785
69.841
68.654
68.232
68.036
66.936
64.022
58.787
51.238
42.063
32.046
21.895
13.141
8.066
8.61
16.275
31.656
53.752
82.682
120.133
164.692
213.842
263.686
307.058
344.906
382.911
423.926
473.921
530.249
586.237
643.729
698.891
748.282
783.319
780.286
724.068
607.126
435.349
237.065
40.843
-127.131
-246.711
-312.516
-328.237
-300.672
-238.721
-156.747
-66.557
18.17
78.642
108.407
108.73
85.487
55.569
33.026
22.043
24.448
36.69
49.725
60.787
69.433
74.616
80.586
89.198
99.28
110.77
121.649
130.262
136.609
140.543
142.256
142.195
140.718
138.313
135.438
132.418
129.468
126.684
124.186
122.1
120.493
119.396
118.799
118.68
119.022
119.824
121.066
122.697
124.679
126.961
129.45
132.055
134.687
137.236
139.731
142.226
144.589
146.716
148.483
149.734
150.63
151.412
151.977
152.173
152.179
152.186
152.732
154.478
157.13
160.045
162.928
165.589
167.667
168.746
167.676
163.089
155.123
144.747
133.012
120.843
108.894
97.838
89.163
84.678
84.819
88.922
95.749
104.168
113.678
123.922
134.072
142.973
150.112
155.805
161.004
166.571
172.793
179.684
187.279
195.812
205.473
216.109
227.24
238.41
249.383
260.095
270.594
280.828
290.635
299.888
308.485
316.344
323.393
329.523
334.603
338.541
341.265
342.722
342.893
341.731
339.186
335.207
329.722
322.706
314.185
304.221
292.927
280.437
266.889
252.455
237.318
221.638
205.581
189.296
172.91
156.581
140.463
124.704
109.464
94.869
81.009
67.957
55.742
44.367
33.809
24.007
14.872
6.332
-1.695
-9.288
-16.52
-23.494
-30.303
-37.021
-43.731
-50.492
-57.353
-64.358
-71.53
-78.867
-86.353
-93.951
-101.604
-109.268
-116.887
-124.404
-131.759
-138.877
-145.697
-152.18
-158.285
-163.987
-169.264
-174.094
-178.469
-182.396
-185.882
-188.945
-191.606
-193.882
-195.801
-197.392
-198.691
-199.737
-200.562
-201.188
-201.637
-201.924
-202.065
-202.074
-201.962
-201.734
-201.396
-200.958
-200.429
-199.82
-199.139
-198.391
-197.58
-196.711
-195.787
-194.814
-193.799
-192.746
-191.663
-190.557
-189.437
-188.312
-187.19
-186.077
-184.98
-183.901
-182.844
-181.813
-180.809
-179.832
-178.885
-177.969
-177.086
-176.242
-175.441
-174.687
-173.984
-173.333
-172.74
-172.206
-171.733
-171.318
-170.961
-170.662
-170.423
-170.253
-170.157
-170.134
-170.184
-170.302
-170.479
-170.707
-170.969
-171.233
-171.472
-171.658
-171.775
-171.822
-171.798
-171.703
-171.535
-171.291
-170.974
-170.607
-170.207
-169.79
-169.378
-168.996
-168.695
-168.556
-168.658
-169.069
-169.831
-170.955
-172.439
-174.279
-176.449
-178.906
-181.588
-184.4
-187.251
-190.07
-192.774
-195.272
-197.445
-199.133
-200.176
-200.453
-199.867
-198.367
-195.927
-192.533
-188.22
-183.069
-177.196
-170.757
-163.908
-156.782
-149.525
-142.304
-135.292
-128.696
-122.718
-117.514
-113.219
-109.936
-107.737
-106.673
-106.748
-107.904
-110.051
-113.067
-116.82
-121.19
-126.047
-131.235
-136.61
-142.02
-147.318
-152.393
-157.145
-161.481
-165.334
-168.652
-171.411
-173.623
-175.322
-176.549
-177.362
-177.813
-177.964
-177.891
-177.657
-177.31
-176.898
-176.45
-175.99
-175.55
-175.143
-174.775
-174.451
-174.163
-173.899
-173.649
-173.395
-173.116
-172.79
-172.393
-171.912
-171.343
-170.687
-169.952
-169.145
-168.278
-167.364
-166.421
-165.461
-164.494
-163.53
-162.58
-161.657
-160.78
-159.966
-159.223
-158.561
-157.985
-157.495
-157.088
-156.75
-156.458
-156.198
-155.959
-155.739
-155.546
-155.386
-155.262
-155.179
-155.142
-155.156
-155.231
-155.369
-155.564
-155.824
-156.164
-156.613
-157.219
-158.01
-158.992
-160.158
-161.488
-162.951
-164.518
-166.141
-167.757
-169.315
-170.762
-172.058
-173.178
-174.081
-174.708
-174.992
-174.843
-174.197
-173.024
-171.3
-169.021
-166.2
-162.863
-159.067
-154.898
-150.43
-145.727
-140.844
-135.822
-130.724
-125.624
-120.601
-115.744
-111.121
-106.782
-102.767
-99.109
-95.821
-92.902
-90.311
-87.982
-85.856
-83.885
-82.03
-80.258
-78.522
-76.775
-74.976
-73.088
-71.084
-68.952
-66.686
-64.28
-61.743
-59.097
-56.391
-53.704
-51.118
-48.707
-46.531
-44.639
-43.088
-41.924
-41.185
-40.9
-41.086
-41.747
-42.885
-44.5
-46.589
-49.15
-52.156
-55.55
-59.261
-63.224
-67.405
-71.797
-76.39
-81.178
-86.141
-91.238
-96.45
-101.783
-107.227
-112.782
-118.432
-124.092
-129.728
-135.367
-140.9
-146.127
-150.715
-154.094
-155.778
-155.438
-152.65
-147.113
-138.95
-128.464
-116.315
-103.617
-91.154
-79.527
-69.572
-61.572
-55.034
-49.122
-42.3
-32.521
-18.269
1.965
30.044
67.108
113.494
168.889
231.935
298.996
364.82
424.176
471.155
505.56
532.872
555.439
574.531
580.435
551.813
474.064
337.275
148.986
-59.837
-257.922
-412.928
-503.052
-532.256
-510.344
-452.139
-378.415
-298.947
-224.417
-169.364
-136.489
-126.069
-132.597
-140.453
-141.952
-134.721
-119.627
-104.256
-91.907
-81.986
-73.239
-62.048
-47.14
-29.763
-11.341
6.032
21.011
33.418
43.057
49.742
53.537
54.547
53.152
50.101
45.967
41.113
35.859
30.394
24.918
19.717
14.997
10.887
7.499
4.895
3.123
2.25
2.296
3.227
4.986
7.465
10.554
14.149
18.139
22.43
26.921
31.493
36.036
40.447
44.655
48.625
52.339
55.789
58.976
61.919
64.654
67.236
69.719
72.15
74.574
77.03
79.567
82.233
85.079
88.148
91.468
95.059
98.935
103.109
107.592
112.385
117.479
122.857
128.507
134.413
140.559
146.922
153.465
160.153
166.956
173.852
180.826
187.863
194.943
202.044
209.146
216.24
223.317
230.367
237.37
244.307
251.167
257.952
264.684
271.374
278.015
284.58
291.03
297.329
303.437
309.306
314.873
320.061
324.794
329.016
332.683
335.752
338.17
339.866
340.754
340.766
339.864
338.031
335.265
331.57
326.964
321.487
315.207
308.217
300.598
292.413
283.717
274.562
265.015
255.16
245.091
234.883
224.598
214.289
203.999
193.777
183.655
173.645
163.738
153.909
144.147
134.46
124.861
115.366
105.986
96.723
87.583
78.579
69.73
61.051
52.557
44.259
36.174
28.33
20.764
13.512
6.606
0.065
-6.097
-11.871
-17.246
-22.216
-26.781
-30.948
-34.723
-38.113
-41.121
-43.751
-46.009
-47.904
-49.45
-50.656
-51.532
-52.088
-52.333
-52.275
-51.926
-51.295
-50.39
-49.217
-47.779
-46.085
-44.149
-41.985
-39.608
-37.038
-34.294
-31.4
-28.386
-25.278
-22.099
-18.872
-15.612
-12.334
-9.049
-5.771
-2.514
0.716
3.924
7.123
10.33
13.565
16.848
20.201
23.663
27.268
31.044
35.008
39.17
43.529
48.084
52.832
57.769
62.867
68.082
73.345
78.572
83.686
88.61
93.262
97.541
101.344
104.577
107.168
109.062
110.216
110.589
110.133
108.815
106.639
103.635
99.874
95.453
90.465
85.001
79.173
73.11
66.959
60.864
54.936
49.27
43.953
39.071
34.733
31.026
28.001
25.683
24.057
23.083
22.726
22.947
23.676
24.828
26.301
27.981
29.791
31.672
33.565
35.407
37.12
38.633
39.907
40.918
41.663
42.149
42.383
42.373
42.155
41.774
41.288
40.761
40.233
39.727
39.267
38.877
38.586
38.418
38.384
38.481
38.707
39.057
39.529
40.119
40.807
41.567
42.372
43.19
43.999
44.784
45.531
46.228
46.864
47.43
47.926
48.352
48.708
48.99
49.194
49.314
49.348
49.294
49.151
48.917
48.593
48.177
47.671
47.076
46.391
45.618
44.757
43.806
42.762
41.617
40.367
39.015
37.565
36.027
34.418
32.752
31.043
29.312
27.577
25.844
24.121
22.397
20.662
18.914
17.16
15.415
13.702
12.021
10.371
8.746
7.126
5.49
3.815
2.049
0.151
-1.897
-4.097
-6.422
-8.824
-11.279
-13.769
-16.278
-18.802
-21.314
-23.774
-26.146
-28.38
-30.409
-32.162
-33.534
-34.423
-34.773
-34.557
-33.788
-32.521
-30.788
-28.623
-26.078
-23.197
-20.044
-16.706
-13.262
-9.807
-6.466
-3.369
-0.67
1.471
2.944
3.675
3.624
2.798
1.198
-1.171
-4.277
-8.087
-12.55
-17.593
-23.142
-29.109
-35.364
-41.77
-48.175
-54.409
-60.344
-65.877
-70.928
-75.447
-79.391
-82.71
-85.374
-87.363
-88.67
-89.311
-89.308
-88.712
-87.623
-86.161
-84.479
-82.736
-81.053
-79.551
-78.353
-77.569
-77.309
-77.689
-78.792
-80.723
-83.624
-87.496
-92.209
-97.505
-102.922
-108.013
-112.447
-115.742
-117.296
-116.9
-114.673
-111.092
-107.133
-103.455
-100.237
-97.946
-97.262
-98.185
-100.111
-101.642
-100.457
-94.815
-83.696
-65.565
-38.526
-1.344
46.235
102.998
166.539
234.345
303.773
371.39
431.06
476.383
503.809
509.515
494.824
463.898
413.738
344.434
252.144
127.503
-23.173
-189.215
-351.8
-479.902
-559.337
-587.924
-573.939
-540.631
-502.167
-463.806
-426.783
-385.122
-338.064
-289.88
-245.128
-209.684
-185.934
-172.903
-169.025
-171.59
-177.842
-185.704
-192.763
-197.011
-197.678
-194.553
-187.967
-178.922
-168.493
-157.779
-148.201
-140.778
-135.865
-133.562
-133.604
-135.492
-138.813
-143.043
-147.524
-151.812
-155.634
-158.812
-161.341
-163.213
-164.371
-164.813
-164.549
-163.58
-161.941
-159.661
-156.766
-153.313
-149.366
-144.998
-140.287
-135.294
-130.079
-124.693
-119.168
-113.541
-107.849
-102.127
-96.426
-90.778
-85.185
-79.646
-74.143
-68.657
-63.17
-57.658
-52.086
-46.428
-40.665
-34.781
-28.775
-22.636
-16.351
-9.903
-3.271
3.556
10.584
17.815
25.251
32.895
40.742
48.78
56.986
65.342
73.825
82.416
91.089
99.812
108.551
117.276
125.958
134.576
143.104
151.513
159.767
167.829
175.668
183.271
190.627
197.725
204.57
211.171
217.55
223.755
229.81
235.731
241.526
247.181
252.691
258.058
263.282
268.365
273.304
278.065
282.614
286.91
290.881
294.447
297.498
299.891
301.51
302.264
302.07
300.873
298.622
295.251
290.708
284.949
277.934
269.659
260.141
249.405
237.522
224.588
210.728
196.125
180.946
165.341
149.463
133.451
117.443
101.606
86.1
71.071
56.67
43.013
30.188
18.283
7.344
-2.606
-11.567
-19.587
-26.726
-33.03
-38.557
-43.377
-47.566
-51.238
-54.523
-57.523
-60.339
-63.051
-65.705
-68.349
-71.013
-73.699
-76.407
-79.117
-81.798
-84.437
-87.014
-89.482
-91.781
-93.815
-95.463
-96.645
-97.299
-97.376
-96.873
-95.8
-94.19
-92.124
-89.677
-86.914
-83.898
-80.66
-77.232
-73.684
-70.1
-66.595
-63.311
-60.351
-57.802
-55.756
-54.253
-53.3
-52.859
-52.816
-53.057
-53.501
-54.085
-54.786
-55.588
-56.442
-57.289
-58.055
-58.647
-58.992
-59.014
-58.609
-57.713
-56.3
-54.405
-52.151
-49.671
-47.055
-44.371
-41.65
-38.916
-36.21
-33.57
-31.026
-28.615
-26.367
-24.335
-22.608
-21.257
-20.326
-19.803
-19.601
-19.628
-19.82
-20.128
-20.523
-20.981
-21.467
-21.962
-22.467
-22.986
-23.519
-24.046
-24.515
-24.883
-25.112
-25.201
-25.189
-25.116
-25.008
-24.887
-24.769
-24.673
-24.621
-24.621
-24.663
-24.735
-24.825
-24.936
-25.084
-25.282
-25.543
-25.869
-26.247
-26.668
-27.125
-27.612
-28.122
-28.644
-29.166
-29.683
-30.2
-30.718
-31.241
-31.766
-32.289
-32.805
-33.309
-33.8
-34.272
-34.724
-35.15
-35.544
-35.905
-36.227
-36.507
-36.742
-36.924
-37.047
-37.104
-37.092
-37.005
-36.838
-36.586
-36.244
-35.808
-35.274
-34.638
-33.898
-33.049
-32.088
-31.015
-29.829
-28.53
-27.115
-25.582
-23.933
-22.166
-20.284
-18.29
-16.184
-13.966
-11.659
-9.283
-6.854
-4.39
-1.892
0.645
3.195
5.746
8.36
11.084
13.933
16.914
19.973
23.033
26.083
29.094
31.756
33.755
35.202
36.126
36.512
36.79
35.92
33.141
30.44
28.362
29.778
37.954
49.686
64.139
77.581
83.142
80.609
66.705
41.895
13.613
-13.021
-28.084
-25.077
-6.691
23.351
54.214
74.996
83.919
78.084
60.364
38.495
12.315
-12.373
-28.65
-36.532
-30.515
-12.838
6.446
22.872
30.054
26.721
19.686
12.548
7.997
7.197
7.496
7.597
7.474
6.815
5.896
4.79
3.239
1.432
-0.255
-1.601
-2.316
-2.012
-0.49
2.252
5.693
8.682
10.203
9.572
6.37
0.463
-8.073
-18.762
-30.029
-39.39
-44.465
-43.117
-33.848
-15.583
12.823
51.758
100.497
157.47
220.65
288.175
357.046
422.343
479.303
523.614
555.881
581.75
603.046
619.441
622.408
594.701
526.454
410.726
251.552
71.555
-105.482
-251.609
-344.158
-381.804
-372.649
-332.449
-280.481
-226.598
-177.054
-139.217
-116.874
-111.896
-121.894
-136.815
-147.427
-149.137
-141.91
-131.022
-120.682
-111.889
-104.085
-95.271
-84.753
-73.427
-62.214
-52.09
-43.603
-36.678
-31.209
-27.049
-23.914
-21.574
-19.856
-18.615
-17.73
-17.11
-16.667
-16.306
-15.999
-15.731
-15.468
-15.188
-14.859
-14.475
-14.064
-13.666
-13.308
-13.006
-12.768
-12.581
-12.446
-12.343
-12.232
-12.079
-11.841
-11.478
-10.965
-10.275
-9.384
-8.266
-6.889
-5.225
-3.258
-0.982
1.596
4.451
7.554
10.843
14.244
17.686
21.1
24.439
27.678
30.796
33.779
36.621
39.325
41.905
44.378
46.766
49.099
51.423
53.8
56.328
59.108
62.232
65.798
69.871
74.492
79.702
85.523
91.968
99.039
106.732
115.039
123.961
133.499
143.633
154.319
165.476
177.009
188.827
200.821
212.894
224.961
236.928
248.705
260.21
271.351
282.027
292.135
301.545
310.113
317.71
324.224
329.569
333.692
336.545
338.098
338.339
337.256
334.856
331.158
326.177
319.953
312.547
304.024
294.477
284.032
272.798
260.896
248.442
235.512
222.185
208.538
194.626
180.51
166.241
151.866
137.436
122.999
108.594
94.27
80.071
66.025
52.183
38.579
25.242
12.234
-0.396
-12.604
-24.335
-35.548
-46.206
-56.268
-65.707
-74.509
-82.661
-90.173
-97.065
-103.362
-109.12
-114.381
-119.184
-123.585
-127.625
-131.338
-134.765
-137.932
-140.859
-143.569
-146.08
-148.396
-150.531
-152.478
-154.226
-155.756
-157.031
-158.022
-158.711
-159.075
-159.107
-158.806
-158.17
-157.212
-155.951
-154.403
-152.591
-150.537
-148.261
-145.788
-143.147
-140.371
-137.498
-134.564
-131.598
-128.628
-125.676
-122.763
-119.907
-117.121
-114.413
-111.794
-109.272
-106.856
-104.559
-102.389
-100.354
-98.461
-96.715
-95.122
-93.686
-92.414
-91.308
-90.373
-89.612
-89.027
-88.622
-88.397
-88.352
-88.486
-88.794
-89.273
-89.917
-90.721
-91.679
-92.783
-94.026
-95.4
-96.898
-98.512
-100.231
-102.047
-103.95
-105.93
-107.976
-110.077
-112.223
-114.403
-116.605
-118.819
-121.033
-123.238
-125.423
-127.576
-129.689
-131.751
-133.753
-135.687
-137.546
-139.322
-141.008
-142.601
-144.094
-145.485
-146.768
-147.941
-149.002
-149.947
-150.775
-151.483
-152.07
-152.536
-152.88
-153.104
-153.208
-153.196
-153.071
-152.836
-152.497
-152.058
-151.523
-150.895
-150.178
-149.375
-148.488
-147.522
-146.477
-145.354
-144.157
-142.887
-141.547
-140.14
-138.663
-137.115
-135.496
-133.808
-132.06
-130.26
-128.419
-126.551
-124.672
-122.807
-120.978
-119.203
-117.497
-115.869
-114.325
-112.87
-111.51
-110.253
-109.098
-108.029
-107.026
-106.067
-105.122
-104.163
-103.153
-102.039
-100.775
-99.327
-97.674
-95.809
-93.733
-91.449
-88.965
-86.296
-83.474
-80.547
-77.574
-74.616
-71.734
-68.986
-66.439
-64.178
-62.271
-60.77
-59.703
-59.079
-58.898
-59.158
-59.849
-60.941
-62.386
-64.127
-66.093
-68.223
-70.461
-72.766
-75.099
-77.418
-79.693
-81.904
-84.037
-86.102
-88.13
-90.149
-92.196
-94.335
-96.603
-99.077
-101.902
-105.07
-108.449
-111.777
-114.581
-116.421
-117.035
-116.037
-112.958
-107.782
-100.778
-92.609
-84.615
-77.799
-72.685
-70.003
-70.297
-73.226
-78.015
-83.073
-85.577
-83.271
-74.364
-56.689
-28.79
9.921
59.668
119.409
186.76
257.724
326.172
386.13
432.287
465.161
490.75
511.106
526.387
526.253
489.854
404.674
263.185
73.445
-135.063
-332.617
-487.884
-579.511
-609.396
-587.311
-529.861
-455.159
-371.43
-286.002
-208.973
-147.886
-109.154
-93.457
-91.161
-92.379
-91.564
-88.064
-87.301
-92.989
-104.131
-116.849
-126.122
-129.57
-127.377
-120.67
-111.083
-99.772
-87.825
-76.875
-67.984
-61.513
-57.52
-55.574
-55.183
-55.977
-57.364
-58.642
-59.374
-59.324
-58.411
-56.728
-54.314
-51.172
-47.376
-43.02
-38.183
-32.946
-27.35
-21.438
-15.293
-9.019
-2.737
3.462
9.526
15.411
21.086
26.524
31.693
36.586
41.218
45.599
49.755
53.71
57.47
61.052
64.478
67.759
70.903
73.892
76.673
79.193
81.417
83.325
84.915
86.189
87.132
87.744
88.027
87.991
87.674
87.114
86.354
85.461
84.528
83.683
83.096
82.93
83.313
84.337
86.071
88.571
91.892
96.076
101.143
107.104
113.955
121.698
130.33
139.814
150.079
161.004
172.429
184.19
196.15
208.194
220.218
232.117
243.781
255.117
266.044
276.482
286.348
295.522
303.878
311.308
317.728
323.079
327.33
330.451
332.394
333.122
332.604
330.822
327.775
323.451
317.838
310.932
302.736
293.301
282.704
271.024
258.343
244.751
230.337
215.21
199.504
183.34
166.833
150.098
133.228
116.333
99.53
82.933
66.662
50.824
35.506
20.793
6.772
-6.483
-18.903
-30.439
-41.084
-50.829
-59.659
-67.564
-74.521
-80.511
-85.531
-89.575
-92.645
-94.755
-95.922
-96.183
-95.606
-94.265
-92.243
-89.621
-86.442
-82.751
-78.61
-74.094
-69.3
-64.341
-59.33
-54.401
-49.711
-45.418
-41.667
-38.569
-36.189
-34.566
-33.731
-33.709
-34.549
-36.29
-38.939
-42.474
-46.843
-51.97
-57.758
-64.071
-70.726
-77.51
-84.22
-90.692
-96.81
-102.481
-107.621
-112.139
-115.933
-118.925
-121.068
-122.338
-122.743
-122.306
-121.069
-119.121
-116.598
-113.667
-110.498
-107.22
-103.922
-100.68
-97.562
-94.644
-92.01
-89.716
-87.796
-86.275
-85.163
-84.469
-84.19
-84.287
-84.689
-85.309
-86.054
-86.861
-87.69
-88.51
-89.293
-90.011
-90.637
-91.165
-91.595
-91.924
-92.143
-92.244
-92.221
-92.091
-91.888
-91.644
-91.397
-91.171
-90.989
-90.872
-90.838
-90.889
-91.02
-91.215
-91.461
-91.761
-92.123
-92.556
-93.063
-93.635
-94.256
-94.925
-95.633
-96.368
-97.105
-97.812
-98.466
-99.069
-99.64
-100.194
-100.743
-101.285
-101.818
-102.351
-102.903
-103.499
-104.165
-104.907
-105.737
-106.68
-107.775
-109.07
-110.601
-112.375
-114.384
-116.633
-119.121
-121.848
-124.807
-127.959
-131.254
-134.639
-138.049
-141.444
-144.784
-148.013
-151.075
-153.908
-156.456
-158.687
-160.573
-162.065
-163.131
-163.747
-163.898
-163.613
-162.931
-161.9
-160.586
-159.043
-157.315
-155.453
-153.501
-151.495
-149.474
-147.47
-145.511
-143.655
-141.95
-140.429
-139.123
-138.035
-137.149
-136.44
-135.853
-135.33
-134.82
-134.276
-133.661
-132.959
-132.146
-131.202
-130.106
-128.818
-127.296
-125.509
-123.429
-121.047
-118.369
-115.432
-112.322
-109.156
-106.05
-103.112
-100.415
-98.031
-96.055
-94.577
-93.699
-93.527
-94.128
-95.612
-98.142
-101.72
-106.195
-111.258
-116.345
-120.942
-124.729
-127.235
-127.912
-126.675
-123.767
-119.858
-116.166
-113.472
-111.958
-112.046
-114.194
-118.038
-122.626
-126.156
-125.932
-120.053
-107.406
-86.385
-55.394
-13.86
38.135
99.268
166.892
238.75
311.405
379.159
436.513
479.395
507.639
523.793
529.045
521.407
492.047
432.502
337.444
203.842
42.92
-129.08
-291.822
-415.178
-483.841
-494.486
-452.839
-386.812
-320.387
-266.76
-235.975
-218.869
-201.213
-177.233
-141.453
-98.007
-57.96
-26.197
-5.149
5.671
10.556
11.353
8.368
2.647
-4.539
-11.458
-16.706
-19.864
-21.107
-20.585
-18.329
-14.647
-10.434
-6.855
-4.619
-3.872
-4.365
-5.721
-7.699
-10.078
-12.451
-14.272
-15.173
-15.01
-13.815
-11.74
-8.894
-5.333
-1.143
3.545
8.605
13.922
19.394
24.955
30.545
36.092
41.539
46.838
51.956
56.883
61.63
66.212
70.648
74.963
79.174
83.305
87.391
91.467
95.573
99.752
104.034
108.447
113.012
117.751
122.676
127.8
133.131
138.667
144.41
150.357
156.503
162.84
169.353
176.021
182.814
189.703
196.661
203.667
210.704
217.758
224.809
231.837
238.815
245.722
252.541
259.262
265.878
272.393
278.818
285.18
291.526
297.901
304.339
310.861
317.462
324.127
330.837
337.574
344.321
351.051
357.728
364.307
370.735
376.954
382.887
388.426
393.428
397.742
401.226
403.771
405.306
405.78
405.158
403.407
400.498
396.421
391.172
384.755
377.172
368.42
358.518
347.539
335.604
322.863
309.478
295.58
281.273
266.65
251.797
236.806
221.773
206.777
191.904
177.257
162.96
149.167
136.023
123.617
111.994
101.162
91.103
81.82
73.322
65.607
58.673
52.504
47.078
42.381
38.389
35.043
32.251
29.886
27.805
25.912
24.138
22.437
20.787
19.156
17.515
15.855
14.17
12.458
10.718
8.94
7.116
5.265
3.426
1.66
0.039
-1.389
-2.595
-3.559
-4.276
-4.742
-4.957
-4.94
-4.715
-4.302
-3.718
-2.974
-2.081
-1.058
0.066
1.258
2.482
3.708
4.916
6.088
7.21
8.272
9.267
10.197
11.067
11.878
12.629
13.319
13.944
14.502
14.993
15.418
15.777
16.07
16.296
16.456
16.55
16.576
16.533
16.42
16.232
15.969
15.63
15.217
14.729
14.168
13.537
12.837
12.072
11.243
10.353
9.404
8.399
7.338
6.225
5.061
3.847
2.587
1.283
-0.062
-1.445
-2.862
-4.309
-5.781
-7.274
-8.784
-10.305
-11.833
-13.364
-14.891
-16.41
-17.915
-19.401
-20.864
-22.299
-23.701
-25.066
-26.39
-27.671
-28.906
-30.092
-31.227
-32.309
-33.334
-34.301
-35.206
-36.046
-36.818
-37.517
-38.143
-38.692
-39.163
-39.556
-39.869
-40.103
-40.26
-40.34
-40.347
-40.278
-40.134
-39.915
-39.62
-39.25
-38.804
-38.281
-37.68
-37.001
-36.249
-35.427
-34.535
-33.571
-32.531
-31.414
-30.223
-28.964
-27.642
-26.265
-24.842
-23.392
-21.942
-20.518
-19.137
-17.808
-16.532
-15.31
-14.145
-13.04
-11.994
-10.997
-10.034
-9.094
-8.172
-7.261
-6.344
-5.388
-4.342
-3.164
-1.829
-0.329
1.329
3.139
5.085
7.14
9.264
11.395
13.48
15.475
17.351
19.082
20.633
21.965
23.019
23.75
24.136
24.17
23.86
23.221
22.289
21.116
19.785
18.394
17.024
15.75
14.618
13.656
12.878
12.272
11.837
11.553
11.396
11.358
11.43
11.581
11.755
11.859
11.731
11.252
10.319
8.737
6.415
3.359
-0.26
-3.909
-6.976
-9.049
-9.717
-8.461
-5.01
0.666
7.951
15.257
21.052
25.31
29.151
33.201
36.936
36.085
24.917
2.849
-24.05
-41.93
-34.898
5.281
75.002
160.334
246.754
324.776
392.393
453.899
509.129
553.807
584.374
594.59
582.882
553.073
504.408
438.065
354.915
249.823
122.878
-20.299
-169.645
-304.756
-404.469
-458.336
-464.383
-430.403
-371.865
-300.504
-227.091
-163.663
-116.509
-88.478
-76.986
-71.876
-65.328
-53.757
-37.405
-21.404
-8.762
0.603
7.79
15.741
26.265
39.014
53.188
67.36
79.895
90.181
98.121
103.567
106.567
107.282
105.894
102.906
99.127
95.116
91.215
87.719
84.764
82.486
81.061
80.54
80.866
81.992
83.856
86.398
89.583
93.323
97.493
101.97
106.62
111.313
115.941
120.398
124.594
128.483
132.035
135.236
138.089
140.602
142.787
144.67
146.284
147.663
148.856
149.906
150.862
151.778
152.7
153.666
154.695
155.781
156.903
158.051
159.228
160.445
161.735
163.132
164.677
166.424
168.413
170.677
173.243
176.119
179.304
182.809
186.65
190.865
195.508
200.613
206.19
212.236
218.714
225.57
232.74
240.135
247.673
255.285
262.912
270.521
278.101
285.641
293.12
300.501
307.725
314.738
321.504
327.981
334.146
339.987
345.492
350.672
355.541
360.102
364.345
368.239
371.716
374.691
377.091
378.835
379.864
380.116
379.521
378.03
375.608
372.219
367.839
362.429
355.938
348.321
339.541
329.567
318.408
306.096
292.677
278.228
262.839
246.619
229.696
212.185
194.186
175.802
157.139
138.319
119.489
100.801
82.423
64.542
47.329
30.944
15.52
1.145
-12.127
-24.266
-35.276
-45.16
-53.922
-61.581
-68.164
-73.721
-78.322
-82.051
-85.019
-87.369
-89.257
-90.839
-92.25
-93.585
-94.917
-96.295
-97.752
-99.31
-100.985
-102.782
-104.702
-106.739
-108.882
-111.114
-113.399
-115.683
-117.898
-119.974
-121.854
-123.506
-124.912
-126.065
-126.972
-127.644
-128.103
-128.378
-128.499
-128.488
-128.37
-128.166
-127.898
-127.599
-127.303
-127.048
-126.87
-126.792
-126.829
-126.992
-127.281
-127.695
-128.224
-128.846
-129.532
-130.258
-130.999
-131.742
-132.487
-133.229
-133.966
-134.693
-135.403
-136.102
-136.805
-137.524
-138.273
-139.071
-139.938
-140.919
-142.081
-143.486
-145.192
-147.234
-149.616
-152.337
-155.388
-158.748
-162.385
-166.243
-170.244
-174.321
-178.411
-182.444
-186.352
-190.027
-193.333
-196.141
-198.331
-199.818
-200.56
-200.529
-199.713
-198.127
-195.816
-192.866
-189.39
-185.488
-181.251
-176.768
-172.142
-167.515
-163.052
-158.911
-155.236
-152.136
-149.686
-147.945
-146.961
-146.758
-147.327
-148.618
-150.564
-153.111
-156.223
-159.879
-164.035
-168.602
-173.485
-178.588
-183.831
-189.166
-194.548
-199.931
-205.26
-210.475
-215.532
-220.406
-225.062
-229.445
-233.472
-237.017
-239.986
-242.326
-243.981
-244.896
-244.997
-244.179
-242.357
-239.484
-235.539
-230.533
-224.496
-217.457
-209.482
-200.681
-191.194
-181.217
-170.93
-160.478
-150.022
-139.734
-129.807
-120.469
-111.93
-104.339
-97.815
-92.44
-88.26
-85.306
-83.563
-82.967
-83.421
-84.795
-86.955
-89.786
-93.157
-96.908
-100.866
-104.835
-108.617
-112.07
-115.079
-117.553
-119.444
-120.737
-121.453
-121.672
-121.488
-121.008
-120.338
-119.537
-118.678
-117.889
-117.294
-117.055
-117.351
-118.238
-119.796
-122.231
-125.558
-129.629
-134.114
-138.289
-141.444
-143.189
-143.082
-140.505
-135.258
-127.674
-118.612
-109.704
-102.772
-97.761
-94.493
-94.748
-98.389
-107.089
-121.822
-135.322
-141.823
-134.547
-105.908
-59.132
1.969
73.597
148.532
225.305
301.844
372.739
433.994
479.695
504.333
505.174
480.294
429.368
355.401
264.324
161.794
52.481
-62.45
-184.325
-309.284
-427.395
-524.699
-587.521
-609.586
-596.059
-558.081
-507.282
-456.317
-409.974
-368.917
-335.647
-306.22
-279.724
-258.196
-239.455
-225.66
-218.285
-215.95
-219.115
-226.073
-234.032
-241.037
-245.604
-247.455
-246.959
-244.575
-240.633
-235.316
-229.316
-223.852
-219.671
-217.064
-216.009
-216.052
-216.819
-218.117
-219.549
-220.552
-220.758
-219.94
-218.017
-215.141
-211.431
-206.937
-201.768
-196.041
-189.842
-183.269
-176.383
-169.2
-161.784
-154.196
-146.49
-138.757
-131.072
-123.503
-116.128
-108.984
-102.079
-95.434
-89.063
-82.984
-77.238
-71.866
-66.929
-62.516
-58.708
-55.576
-53.174
-51.503
-50.543
-50.246
-50.539
-51.357
-52.646
-54.339
-56.367
-58.654
-61.102
-63.607
-66.038
-68.23
-70.004
-71.189
-71.644
-71.274
-70.024
-67.874
-64.834
-60.931
-56.203
-50.694
-44.453
-37.537
-30.005
-21.918
-13.358
-4.427
4.759
14.072
23.403
32.668
41.789
50.716
59.405
67.825
75.96
83.796
91.309
98.47
105.234
111.544
117.345
122.573
127.155
131.035
134.141
136.411
137.803
138.274
137.793
136.332
133.86
130.353
125.809
120.239
113.672
106.162
97.77
88.588
78.737
68.338
57.525
46.415
35.097
23.654
12.157
0.669
-10.753
-22.057
-33.204
-44.163
-54.907
-65.418
-75.685
-85.718
-95.547
-105.206
-114.738
-124.17
-133.508
-142.753
-151.895
-160.918
-169.801
-178.518
-187.037
-195.33
-203.372
-211.137
-218.6
-225.73
-232.492
-238.846
-244.748
-250.167
-255.076
-259.457
-263.301
-266.598
-269.344
-271.537
-273.178
-274.268
-274.812
-274.816
-274.286
-273.234
-271.678
-269.648
-267.184
-264.324
-261.102
-257.552
-253.702
-249.583
-245.231
-240.675
-235.937
-231.035
-225.972
-220.751
-215.374
-209.827
-204.078
-198.083
-191.78
-185.119
-178.063
-170.575
-162.628
-154.197
-145.265
-135.841
-125.962
-115.686
-105.095
-94.285
-83.36
-72.464
-61.774
-51.474
-41.766
-32.829
-24.813
-17.873
-12.155
-7.783
-4.856
-3.428
-3.494
-5.019
-7.932
-12.125
-17.467
-23.772
-30.809
-38.346
-46.138
-53.959
-61.609
-68.887
-75.587
-81.531
-86.568
-90.584
-93.528
-95.379
-96.152
-95.909
-94.727
-92.729
-90.065
-86.889
-83.357
-79.618
-75.792
-72
-68.363
-64.988
-61.969
-59.385
-57.268
-55.614
-54.386
-53.523
-52.959
-52.616
-52.405
-52.237
-52.016
-51.658
-51.102
-50.299
-49.202
-47.764
-45.933
-43.659
-40.932
-37.776
-34.248
-30.41
-26.312
-22.007
-17.546
-12.991
-8.407
-3.851
0.641
5.043
9.322
13.44
17.343
20.979
24.324
27.377
30.161
32.69
34.972
37.009
38.806
40.375
41.728
42.871
43.799
44.507
45.004
45.303
45.428
45.403
45.235
44.924
44.47
43.87
43.133
42.269
41.296
40.236
39.125
37.994
36.876
35.796
34.767
33.803
32.92
32.134
31.468
30.946
30.583
30.401
30.417
30.637
31.043
31.587
32.202
32.833
33.45
34.054
34.641
35.19
35.654
35.983
36.117
36.034
35.704
35.04
34.065
32.912
31.833
31.277
31.686
33.321
36.35
40.885
46.66
53.196
59.918
65.838
70.078
72.104
71.561
68.476
63.688
58.436
53.89
51.739
53.687
61.145
75.54
97.747
127.283
162.96
203.717
247.532
291.637
333.104
368.033
392.285
403.083
398.015
375.582
337.083
284.415
219.033
140.285
46.251
-60.578
-170.943
-267.971
-334.574
-364.455
-363.038
-342.469
-314.561
-282.92
-243.062
-194.354
-142.079
-94.454
-63.784
-53.395
-56.399
-65.624
-71.597
-70.305
-65.623
-60.018
-55.599
-52.54
-47.568
-39.402
-28.647
-16.46
-4.74
5.603
14.684
22.479
28.755
33.419
36.539
38.495
39.946
41.288
42.614
43.974
45.389
46.908
48.593
50.4
52.195
53.878
55.4
56.77
58.032
59.211
60.308
61.316
62.229
63.066
63.866
64.665
65.527
66.53
67.781
69.435
71.641
74.529
78.218
82.794
88.325
94.878
102.494
111.194
120.982
131.833
143.705
156.548
170.273
184.759
199.857
215.375
231.12
246.912
262.566
277.897
292.735
306.917
320.294
332.763
344.238
354.645
363.939
372.088
379.083
384.948
389.717
393.428
396.139
397.922
398.867
399.103
398.748
397.917
396.73
395.289
393.684
392.011
390.342
388.726
387.217
385.863
384.727
383.899
383.449
383.411
383.791
384.558
385.675
387.111
388.81
390.684
392.641
394.573
396.379
397.974
399.252
400.079
400.293
399.702
398.129
395.448
391.558
386.382
379.856
371.913
362.527
351.73
339.584
326.177
311.609
295.987
279.454
262.203
244.469
226.508
208.564
190.841
173.518
156.757
140.716
125.549
111.37
98.241
86.188
75.217
65.317
56.46
48.578
41.557
35.231
29.415
23.929
18.621
13.367
8.062
2.614
-3.055
-8.983
-15.169
-21.576
-28.159
-34.869
-41.642
-48.397
-55.016
-61.344
-67.205
-72.418
-76.821
-80.282
-82.7
-83.994
-84.115
-83.069
-80.918
-77.762
-73.722
-68.923
-63.499
-57.595
-51.379
-45.036
-38.762
-32.764
-27.237
-22.362
-18.298
-15.189
-13.146
-12.218
-12.391
-13.597
-15.737
-18.695
-22.341
-26.524
-31.086
-35.881
-40.768
-45.613
-50.292
-54.675
-58.636
-62.052
-64.814
-66.859
-68.177
-68.801
-68.798
-68.256
-67.284
-66.016
-64.585
-63.089
-61.602
-60.168
-58.819
-57.597
-56.551
-55.738
-55.225
-55.058
-55.261
-55.844
-56.796
-58.091
-59.695
-61.546
-63.59
-65.802
-68.186
-70.789
-73.67
-76.879
-80.457
-84.422
-88.762
-93.452
-98.45
-103.702
-109.146
-114.706
-120.3
-125.857
-131.3
-136.544
-141.486
-145.976
-149.86
-152.973
-155.161
-156.313
-156.353
-155.244
-152.994
-149.646
-145.278
-140.016
-134.016
-127.436
-120.453
-113.222
-105.907
-98.719
-91.869
-85.592
-80.122
-75.639
-72.302
-70.233
-69.499
-70.124
-72.079
-75.253
-79.496
-84.638
-90.479
-96.844
-103.552
-110.371
-117.076
-123.425
-129.164
-134.076
-137.95
-140.576
-141.792
-141.492
-139.624
-136.23
-131.398
-125.232
-117.89
-109.523
-100.299
-90.44
-80.153
-69.647
-59.16
-48.921
-39.181
-30.221
-22.291
-15.58
-10.227
-6.295
-3.816
-2.803
-3.222
-5.016
-8.104
-12.364
-17.694
-23.993
-31.119
-38.913
-47.171
-55.652
-64.131
-72.436
-80.441
-88.071
-95.261
-101.95
-108.101
-113.671
-118.667
-123.128
-127.077
-130.576
-133.682
-136.424
-138.911
-141.323
-143.73
-146.109
-148.234
-149.638
-150.077
-149.581
-148.199
-146.04
-143.225
-139.815
-136.301
-133.604
-132.082
-131.417
-130.81
-129.134
-125.563
-119.73
-110.963
-98.06
-80.424
-58.422
-33.343
-6.873
19.925
46.796
73.588
99.529
124.183
148.051
172.205
196.317
218.035
234.695
244.419
250.262
257.73
267.334
274.855
270.093
240.125
180.199
92.708
-15.506
-130.337
-238.957
-329.798
-387.384
-404.827
-381.961
-324.096
-251.982
-185.313
-136.283
-113.391
-108.786
-109.403
-109.084
-102.07
-90.173
-80.153
-72.945
-68.809
-66.997
-64.041
-58.577
-50.189
-38.518
-24.567
-9.795
4.576
17.748
29.377
39.344
47.468
53.56
57.6
59.931
61.167
61.752
61.944
61.86
61.528
61.067
60.67
60.487
60.596
61.05
61.884
63.154
64.944
67.301
70.226
73.687
77.619
81.963
86.666
91.693
97.008
102.56
108.29
114.12
119.976
125.805
131.569
137.236
142.785
148.196
153.471
158.62
163.652
168.58
173.416
178.165
182.837
187.43
191.928
196.322
200.614
204.803
208.907
212.928
216.858
220.7
224.462
228.171
231.881
235.632
239.446
243.348
247.355
251.507
255.881
260.539
265.53
270.895
276.661
282.875
289.607
296.898
304.749
313.124
321.944
331.141
340.675
350.497
360.558
370.786
381.067
391.305
401.414
411.291
420.823
429.862
438.22
445.738
452.306
457.855
462.353
465.765
468.034
469.121
468.993
467.629
465.033
461.201
456.132
449.866
442.48
434.099
424.89
415.019
404.621
393.818
382.712
371.408
360.027
348.678
337.475
326.538
315.985
305.94
296.512
287.772
279.756
272.464
265.862
259.904
254.547
249.743
245.446
241.615
238.191
235.121
232.334
229.744
227.261
224.797
222.271
219.631
216.841
213.881
210.748
207.457
204.024
200.478
196.847
193.151
189.418
185.68
181.977
178.363
174.886
171.587
168.499
165.641
163.028
160.671
158.572
156.722
155.108
153.712
152.513
151.499
150.655
149.964
149.405
148.953
148.589
148.31
148.12
148.028
148.037
148.145
148.345
148.636
149.016
149.487
150.046
150.677
151.362
152.086
152.842
153.622
154.41
155.174
155.862
156.424
156.829
157.064
157.131
157.025
156.746
156.298
155.701
155.006
154.267
153.533
152.836
152.211
151.698
151.365
151.302
151.591
152.281
153.396
154.947
156.95
159.422
162.378
165.79
169.59
173.696
178.038
182.563
187.216
191.925
196.594
201.095
205.331
209.243
212.789
215.937
218.637
220.821
222.424
223.422
223.831
223.675
222.969
221.707
219.887
217.537
214.709
211.479
207.885
203.924
199.584
194.864
189.784
184.403
178.787
172.975
166.997
160.893
154.715
148.546
142.468
136.523
130.734
125.115
119.704
114.584
109.836
105.518
101.669
98.292
95.378
92.925
90.921
89.32
88.062
87.058
86.209
85.456
84.752
84.054
83.31
82.438
81.362
80.024
78.382
76.409
74.085
71.385
68.299
64.847
61.06
56.985
52.68
48.177
43.496
38.658
33.681
28.596
23.428
18.19
12.885
7.516
2.089
-3.39
-8.915
-14.499
-20.158
-25.914
-31.786
-37.783
-43.908
-50.164
-56.555
-63.085
-69.752
-76.543
-83.44
-90.424
-97.476
-104.573
-111.683
-118.759
-125.756
-132.626
-139.33
-145.834
-152.099
-158.083
-163.749
-169.057
-173.982
-178.515
-182.651
-186.39
-189.755
-192.781
-195.53
-198.096
-200.566
-203.028
-205.574
-208.287
-211.259
-214.584
-218.334
-222.566
-227.311
-232.563
-238.294
-244.458
-250.956
-257.667
-264.448
-271.087
-277.363
-283.047
-287.864
-291.529
-293.775
-294.285
-292.716
-288.892
-282.765
-274.434
-264.237
-252.501
-239.475
-225.613
-211.47
-197.203
-182.708
-167.527
-150.678
-131.494
-109.797
-85.185
-57.356
-27.059
4.38
34.943
61.235
80.134
89.555
86.818
70.61
42.791
3.648
-46.626
-107.527
-181.923
-265.735
-347.632
-416.104
-458.043
-471.107
-464.738
-448.026
-430.949
-416.973
-401.892
-384.759
-365.197
-343.966
-324.736
-308.529
-294.744
-283.036
-272.005
-260.257
-247.435
-233.399
-218.19
-202.411
-186.694
-171.519
-157.552
-145.483
-135.661
-128.252
-123.283
-120.534
-119.793
-120.885
-123.543
-127.484
-132.454
-138.188
-144.481
-151.173
-158.063
-164.94
-171.604
-177.862
-183.592
-188.729
-193.228
-197.074
-200.272
-202.841
-204.834
-206.324
-207.387
-208.106
-208.547
-208.767
-208.843
-208.851
-208.866
-208.958
-209.152
-209.446
-209.832
-210.296
-210.824
-211.395
-211.974
-212.513
-212.971
-213.321
-213.551
-213.649
-213.589
-213.34
-212.876
-212.191
-211.311
-210.268
-209.086
-207.784
-206.365
-204.843
-203.24
-201.566
-199.816
-197.956
-195.928
-193.695
-191.243
-188.557
-185.625
-182.395
-178.786
-174.732
-170.176
-165.073
-159.385
-153.053
-146.022
-138.278
-129.848
-120.798
-111.235
-101.237
-90.865
-80.194
-69.303
-58.316
-47.388
-36.658
-26.261
-16.346
-7.073
1.361
8.76
14.986
19.952
23.614
25.966
26.988
26.656
24.975
21.962
17.669
12.174
5.543
-2.148
-10.79
-20.246
-30.338
-40.874
-51.71
-62.741
-73.883
-85.077
-96.258
-107.362
-118.352
-129.204
-139.897
-150.418
-160.748
-170.866
-180.78
-190.516
-200.123
-209.659
-219.156
-228.623
-238.061
-247.459
-256.802
-266.073
-275.235
-284.247
-293.071
-301.674
-310.028
-318.111
-325.887
-333.319
-340.365
-346.98
-353.133
-358.8
-363.963
-368.61
-372.735
-376.337
-379.423
-382.009
-384.106
-385.727
-386.884
-387.588
-387.857
-387.709
-387.164
-386.243
-384.967
-383.359
-381.44
-379.236
-376.767
-374.059
-371.134
-368.013
-364.722
-361.284
-357.723
-354.066
-350.337
-346.56
-342.76
-338.961
-335.186
-331.459
-327.799
-324.228
-320.765
-317.427
-314.232
-311.196
-308.33
-305.65
-303.165
-300.887
-298.824
-296.983
-295.372
-293.997
-292.861
-291.967
-291.318
-290.914
-290.754
-290.835
-291.155
-291.708
-292.49
-293.494
-294.713
-296.137
-297.758
-299.566
-301.549
-303.695
-305.991
-308.424
-310.98
-313.644
-316.402
-319.238
-322.138
-325.086
-328.067
-331.067
-334.07
-337.063
-340.029
-342.955
-345.826
-348.628
-351.346
-353.968
-356.481
-358.872
-361.13
-363.244
-365.203
-366.999
-368.624
-370.069
-371.327
-372.393
-373.262
-373.929
-374.392
-374.648
-374.698
-374.542
-374.181
-373.617
-372.855
-371.899
-370.752
-369.422
-367.913
-366.232
-364.388
-362.387
-360.239
-357.953
-355.54
-353.009
-350.372
-347.642
-344.828
-341.944
-339.002
-336.012
-332.988
-329.941
-326.884
-323.826
-320.781
-317.759
-314.77
-311.826
-308.936
-306.108
-303.352
-300.673
-298.08
-295.579
-293.174
-290.872
-288.677
-286.593
-284.624
-282.773
-281.042
-279.432
-277.946
-276.581
-275.337
-274.212
-273.201
-272.302
-271.509
-270.817
-270.218
-269.707
-269.276
-268.918
-268.623
-268.382
-268.187
-268.027
-267.892
-267.773
-267.659
-267.54
-267.406
-267.247
-267.054
-266.817
-266.526
-266.171
-265.742
-265.23
-264.624
-263.916
-263.095
-262.153
-261.083
-259.878
-258.533
-257.043
-255.407
-253.623
-251.692
-249.616
-247.396
-245.035
-242.539
-239.911
-237.159
-234.288
-231.306
-228.221
-225.044
-221.787
-218.464
-215.088
-211.672
-208.23
-204.775
-201.324
-197.89
-194.486
-191.123
-187.817
-184.586
-181.456
-178.446
-175.567
-172.83
-170.239
-167.795
-165.499
-163.342
-161.303
-159.364
-157.509
-155.73
-154.029
-152.401
-150.835
-149.313
-147.806
-146.294
-144.773
-143.238
-141.687
-140.126
-138.565
-137.035
-135.595
-134.293
-133.158
-132.208
-131.438
-130.847
-130.446
-130.246
-130.268
-130.521
-130.989
-131.651
-132.462
-133.365
-134.322
-135.266
-136.111
-136.793
-137.192
-137.219
-136.872
-136.042
-134.56
-132.184
-128.426
-122.831
-115.275
-105.678
-94.042
-80.723
-65.987
-50.334
-35.006
-21.129
-9.277
0.241
7.828
14.56
21.069
28.305
38.307
53.049
74.2
102.977
139.017
180.892
227.692
277.961
328.848
377.025
418.506
449.324
467.252
471.109
459.316
431.121
387.508
330.752
264.878
194.849
124.826
58.689
0.996
-44.268
-74.728
-89.481
-89.49
-77.035
-54.457
-24.475
9.261
43.129
74.543
101.895
124.679
143.232
157.997
169.669
179.55
189.048
199.006
209.746
221.128
232.659
243.906
254.48
263.817
271.348
276.795
280.129
281.532
281.356
279.923
277.511
274.456
271.103
267.732
264.584
261.829
259.585
257.971
257.089
257.009
257.773
259.387
261.826
265.049
268.986
273.547
278.632
284.128
289.921
295.903
301.967
308.025
314.006
319.854
325.533
331.017
336.294
341.359
346.221
350.893
355.397
359.762
364.014
368.186
372.315
376.436
380.59
384.809
389.113
393.518
398.031
402.657
407.397
412.25
417.209
422.267
427.417
432.654
437.978
443.391
448.888
454.454
460.074
465.726
471.394
477.063
482.716
488.329
493.887
499.379
504.803
510.171
515.48
520.723
525.88
530.926
535.842
540.624
545.266
549.769
554.133
558.353
562.438
566.414
570.282
574.03
577.62
580.989
584.093
586.905
589.402
591.578
593.416
594.884
595.961
596.631
596.871
596.66
595.96
594.712
592.888
590.491
587.55
584.131
580.284
576.037
571.422
566.466
561.199
555.661
549.882
543.876
537.675
531.313
524.841
518.334
511.839
505.382
498.968
492.579
486.209
479.866
473.555
467.277
461.041
454.85
448.723
442.687
436.76
430.956
425.275
419.707
414.255
408.93
403.752
398.748
393.94
389.342
384.972
380.848
376.983
373.386
370.059
366.997
364.194
361.649
359.366
357.346
355.592
354.101
352.862
351.865
351.099
350.555
350.219
350.078
350.116
350.316
350.675
351.187
351.849
352.657
353.596
354.653
355.814
357.064
358.399
359.815
361.3
362.843
364.441
366.09
367.794
369.559
371.364
373.19
375.02
376.835
378.632
380.408
382.155
383.864
385.524
387.124
388.664
390.147
391.561
392.899
394.147
395.288
396.344
397.334
398.269
399.161
400.011
400.82
401.602
402.374
403.143
403.918
404.698
405.481
406.279
407.095
407.928
408.769
409.59
410.368
411.094
411.764
412.38
412.944
413.455
413.91
414.32
414.695
415.039
415.347
415.619
415.866
416.114
416.409
416.791
417.285
417.907
418.664
419.543
420.525
421.57
422.613
423.591
424.444
425.121
425.593
425.82
425.743
425.297
424.392
422.949
420.911
418.215
414.801
410.653
405.772
400.202
394.041
387.376
380.296
372.892
365.227
357.367
349.396
341.386
333.422
325.597
317.984
310.677
303.777
297.344
291.407
285.964
280.954
276.316
271.99
267.892
263.965
260.161
256.428
252.737
249.062
245.364
241.605
237.743
233.711
229.473
225.01
220.316
215.423
210.37
205.2
199.979
194.763
189.587
184.485
179.472
174.55
169.734
165.034
160.459
156.033
151.772
147.686
143.786
140.069
136.525
133.138
129.882
126.734
123.677
120.701
117.802
114.982
112.242
109.584
107.014
104.534
102.143
99.838
97.616
95.473
93.407
91.419
89.509
87.68
85.931
84.26
82.666
81.144
79.689
78.295
76.953
75.657
74.399
73.173
71.975
70.798
69.637
68.487
67.341
66.195
65.041
63.873
62.681
61.458
60.196
58.886
57.52
56.089
54.585
53.001
51.327
49.559
47.688
45.709
43.616
41.404
39.068
36.606
34.013
31.287
28.427
25.43
22.297
19.026
15.619
12.074
8.394
4.58
0.633
-3.444
-7.649
-11.978
-16.427
-20.992
-25.667
-30.445
-35.321
-40.285
-45.329
-50.444
-55.619
-60.844
-66.106
-71.395
-76.698
-82.004
-87.298
-92.569
-97.803
-102.99
-108.114
-113.162
-118.123
-122.983
-127.729
-132.347
-136.825
-141.15
-145.31
-149.295
-153.093
-156.693
-160.087
-163.263
-166.216
-168.935
-171.414
-173.643
-175.614
-177.324
-178.768
-179.944
-180.853
-181.495
-181.872
-181.989
-181.855
-181.477
-180.863
-180.017
-178.944
-177.656
-176.171
-174.513
-172.704
-170.765
-168.719
-166.593
-164.418
-162.222
-160.024
-157.833
-155.659
-153.518
-151.436
-149.447
-147.585
-145.874
-144.324
-142.942
-141.742
-140.738
-139.939
-139.339
-138.928
-138.708
-138.706
-138.969
-139.543
-140.454
-141.709
-143.305
-145.24
-147.528
-150.191
-153.246
-156.696
-160.547
-164.811
-169.514
-174.681
-180.306
-186.338
-192.693
-199.294
-206.083
-213.019
-220.066
-227.172
-234.27
-241.284
-248.154
-254.827
-261.25
-267.355
-273.075
-278.367
-283.229
-287.711
-291.881
-295.778
-299.439
-302.916
-306.264
-309.565
-312.923
-316.402
-320.105
-324.192
-328.685
-333.51
-338.475
-343.177
-347.248
-350.472
-352.489
-352.879
-351.648
-349.083
-345.868
-343.159
-341.726
-341.852
-343.961
-348.487
-355.121
-362.948
-370.211
-374.315
-373.213
-365.432
-349.373
-323.429
-286.629
-238.774
-180.922
-115.576
-46.599
20.978
82.301
133.232
173.742
206.279
231.699
248.466
246.834
215.208
145.465
34.726
-103.054
-246.587
-372.492
-456.83
-493.742
-489.448
-455.399
-409.212
-361.076
-314.959
-276.048
-249.848
-241.735
-254.313
-284.553
-321.556
-352.195
-369.785
-371.354
-359.88
-344.984
-331.305
-321.529
-318.06
-316.975
-316.283
-316.099
-314.791
-313.506
-313.322
-313.568
-314.298
-315.271
-315.95
-316.401
-316.737
-316.862
-316.745
-316.357
-315.599
-314.402
-312.735
-310.557
-307.868
-304.734
-301.251
-297.551
-293.766
-290.027
-286.461
-283.158
-280.206
-277.691
-275.664
-274.173
-273.231
-272.799
-272.842
-273.311
-274.118
-275.161
-276.304
-277.359
-278.16
-278.539
-278.317
-277.35
-275.495
-272.615
-268.616
-263.423
-257.002
-249.374
-240.574
-230.652
-219.696
-207.81
-195.131
-181.828
-168.058
-153.989
-139.815
-125.719
-111.901
-98.554
-85.842
-73.925
-62.933
-52.951
-44.04
-36.231
-29.527
-23.92
-19.386
-15.887
-13.387
-11.831
-11.137
-11.207
-11.918
-13.136
-14.72
-16.517
-18.378
-20.177
-21.822
-23.24
-24.371
-25.159
-25.553
-25.491
-24.925
-23.814
-22.124
-19.849
-17.013
-13.668
-9.905
-5.843
-1.609
2.672
6.894
10.961
14.771
18.237
21.288
23.836
25.806
27.116
27.658
27.359
26.173
24.085
21.126
17.355
12.838
7.659
1.914
-4.306
-10.896
-17.781
-24.927
-32.283
-39.792
-47.381
-54.941
-62.381
-69.638
-76.657
-83.398
-89.833
-95.931
-101.685
-107.119
-112.25
-117.093
-121.635
-125.807
-129.56
-132.868
-135.722
-138.138
-140.127
-141.676
-142.783
-143.474
-143.781
-143.746
-143.405
-142.762
-141.842
-140.687
-139.369
-138
-136.677
-135.467
-134.421
-133.587
-133.015
-132.772
-132.919
-133.469
-134.428
-135.788
-137.535
-139.673
-142.182
-145.014
-148.098
-151.336
-154.65
-157.984
-161.297
-164.542
-167.671
-170.624
-173.34
-175.793
-177.963
-179.835
-181.4
-182.643
-183.567
-184.194
-184.569
-184.744
-184.759
-184.635
-184.389
-184.034
-183.588
-183.073
-182.509
-181.901
-181.252
-180.57
-179.86
-179.128
-178.376
-177.592
-176.757
-175.849
-174.855
-173.767
-172.585
-171.308
-169.936
-168.469
-166.913
-165.278
-163.571
-161.798
-159.964
-158.072
-156.13
-154.145
-152.129
-150.094
-148.048
-146
-143.955
-141.921
-139.904
-137.908
-135.935
-133.988
-132.069
-130.181
-128.329
-126.517
-124.748
-123.027
-121.356
-119.74
-118.181
-116.682
-115.244
-113.87
-112.56
-111.318
-110.143
-109.038
-108.004
-107.042
-106.152
-105.336
-104.593
-103.924
-103.328
-102.807
-102.361
-101.989
-101.693
-101.473
-101.329
-101.263
-101.274
-101.363
-101.53
-101.775
-102.096
-102.494
-102.966
-103.514
-104.134
-104.826
-105.588
-106.419
-107.316
-108.278
-109.303
-110.388
-111.53
-112.727
-113.977
-115.276
-116.621
-118.011
-119.441
-120.908
-122.409
-123.94
-125.497
-127.075
-128.67
-130.275
-131.887
-133.499
-135.105
-136.7
-138.278
-139.833
-141.359
-142.85
-144.301
-145.706
-147.058
-148.351
-149.581
-150.741
-151.825
-152.828
-153.744
-154.569
-155.297
-155.924
-156.444
-156.854
-157.149
-157.325
-157.378
-157.304
-157.1
-156.764
-156.292
-155.684
-154.939
-154.057
-153.039
-151.886
-150.601
-149.187
-147.648
-145.988
-144.211
-142.323
-140.329
-138.233
-136.044
-133.766
-131.408
-128.977
-126.481
-123.931
-121.337
-118.711
-116.062
-113.401
-110.738
-108.083
-105.446
-102.838
-100.268
-97.742
-95.272
-92.871
-90.553
-88.331
-86.217
-84.212
-82.318
-80.542
-78.885
-77.348
-75.928
-74.616
-73.412
-72.325
-71.364
-70.541
-69.86
-69.316
-68.903
-68.615
-68.449
-68.411
-68.501
-68.713
-69.048
-69.514
-70.126
-70.915
-71.891
-73.042
-74.351
-75.795
-77.355
-79.023
-80.784
-82.614
-84.484
-86.365
-88.234
-90.08
-91.887
-93.618
-95.22
-96.619
-97.76
-98.613
-99.161
-99.393
-99.293
-98.855
-98.088
-97.025
-95.723
-94.226
-92.564
-90.763
-88.846
-86.858
-84.88
-83.007
-81.32
-79.892
-78.777
-78.024
-77.698
-77.83
-78.426
-79.459
-80.859
-82.566
-84.539
-86.74
-89.126
-91.645
-94.198
-96.671
-98.971
-100.997
-102.665
-103.892
-104.569
-104.622
-104.011
-102.716
-100.767
-98.19
-94.987
-91.169
-86.755
-81.77
-76.288
-70.404
-64.19
-57.734
-51.117
-44.421
-37.769
-31.264
-24.985
-19.007
-13.383
-8.164
-3.44
0.71
4.225
7.038
9.136
10.527
11.204
11.178
10.463
9.089
7.125
4.647
1.719
-1.585
-5.196
-9.032
-12.972
-16.901
-20.713
-24.305
-27.615
-30.598
-33.21
-35.424
-37.228
-38.64
-39.722
-40.562
-41.255
-41.899
-42.583
-43.404
-44.467
-45.88
-47.759
-50.205
-53.305
-57.123
-61.664
-66.927
-72.92
-79.503
-86.409
-93.237
-99.408
-104.379
-107.765
-109.231
-108.509
-105.619
-100.744
-94.31
-87.115
-79.921
-73.301
-67.5
-62.356
-57.196
-51.088
-42.947
-31.225
-14.141
9.954
42.069
82.529
130.833
185.938
246.747
309.954
369.936
421.482
459.765
485.13
503.291
516.696
525.618
521.845
488.524
415.042
295.569
137.489
-34.329
-194.91
-318.608
-386.882
-400.624
-365.781
-294.714
-208.278
-119.683
-43.33
5.948
26.337
17.78
-14.1
-54.974
-94.413
-123.037
-134.668
-129.727
-112.726
-90.893
-69.669
-53.456
-42.383
-32.424
-22.087
-9.86
4.408
17.859
29.403
38.996
46.476
52.692
58.278
63.046
66.984
70.197
72.623
74.361
75.575
76.279
76.494
76.302
75.754
74.926
73.952
72.925
71.92
71.018
70.292
69.829
69.702
69.948
70.573
71.56
72.888
74.551
76.546
78.861
81.489
84.404
87.578
90.993
94.621
98.429
102.372
106.393
110.451
114.528
118.619
122.73
126.871
131.048
135.273
139.563
143.939
148.415
153.01
157.731
162.593
167.614
172.818
178.234
183.884
189.779
195.918
202.296
208.904
215.725
222.737
229.908
237.198
244.57
251.989
259.424
266.854
274.254
281.6
288.867
296.029
303.07
309.986
316.778
323.443
329.983
336.4
342.707
348.937
355.116
361.259
367.378
373.456
379.47
385.399
391.211
396.864
402.304
407.455
412.231
416.565
420.393
423.655
426.285
428.193
429.299
429.549
428.9
427.338
424.865
421.488
417.226
412.129
406.265
399.728
392.629
385.055
377.087
368.806
360.293
351.652
342.976
334.339
325.802
317.41
309.202
301.217
293.482
286
278.758
271.729
264.875
258.176
251.622
245.199
238.899
232.706
226.606
220.599
214.693
208.894
203.208
197.641
192.197
186.892
181.751
176.797
172.057
167.549
163.283
159.269
155.511
152.013
148.775
145.792
143.053
140.55
138.278
136.229
134.399
132.778
131.354
130.116
129.053
128.155
127.414
126.821
126.369
126.05
125.861
125.796
125.852
126.025
126.311
126.704
127.201
127.795
128.484
129.263
130.128
131.076
132.103
133.208
134.389
135.641
136.964
138.353
139.807
141.323
142.898
144.529
146.213
147.946
149.725
151.547
153.406
155.299
157.221
159.166
161.128
163.103
165.083
167.064
169.037
170.999
172.941
174.859
176.744
178.592
180.395
182.147
183.841
185.472
187.033
188.518
189.922
191.24
192.466
193.597
194.629
195.557
196.378
197.091
197.692
198.181
198.556
198.817
198.964
198.998
198.922
198.737
198.447
198.054
197.562
196.975
196.298
195.536
194.694
193.777
192.792
191.746
190.644
189.495
188.305
187.082
185.833
184.566
183.288
182.007
180.729
179.463
178.214
176.992
175.801
174.648
173.541
172.483
171.482
170.541
169.664
168.856
168.118
167.455
166.866
166.355
165.921
165.566
165.289
165.089
164.966
164.917
164.94
165.031
165.187
165.404
165.676
165.998
166.364
166.768
167.204
167.664
168.14
168.626
169.112
169.591
170.053
170.491
170.895
171.257
171.568
171.819
172.002
172.111
172.137
172.074
171.914
171.652
171.282
170.798
170.196
169.472
168.621
167.64
166.528
165.283
163.904
162.392
160.746
158.969
157.062
155.028
152.87
150.592
148.198
145.694
143.086
140.379
137.58
134.698
131.74
128.713
125.627
122.489
119.309
116.094
112.854
109.595
106.328
103.058
99.795
96.546
93.319
90.12
86.956
83.833
80.757
77.733
74.764
71.855
69.01
66.23
63.518
60.876
58.306
55.808
53.383
51.031
48.752
46.543
44.403
42.329
40.318
38.367
36.471
34.626
32.828
31.07
29.348
27.658
25.993
24.348
22.718
21.097
19.479
17.86
16.233
14.593
12.936
11.258
9.553
7.817
6.048
4.24
2.391
0.497
-1.446
-3.44
-5.489
-7.595
-9.76
-11.986
-14.273
-16.622
-19.032
-21.5
-24.026
-26.605
-29.233
-31.908
-34.624
-37.378
-40.164
-42.978
-45.815
-48.67
-51.54
-54.418
-57.299
-60.176
-63.041
-65.887
-68.706
-71.489
-74.228
-76.913
-79.536
-82.089
-84.565
-86.957
-89.256
-91.447
-93.524
-95.483
-97.323
-99.045
-100.655
-102.16
-103.571
-104.909
-106.195
-107.445
-108.675
-109.887
-111.084
-112.271
-113.452
-114.634
-115.817
-116.986
-118.123
-119.215
-120.247
-121.202
-122.052
-122.748
-123.249
-123.528
-123.564
-123.367
-122.952
-122.331
-121.523
-120.562
-119.485
-118.358
-117.244
-116.177
-115.193
-114.327
-113.621
-113.155
-112.988
-113.156
-113.68
-114.551
-115.748
-117.259
-119.055
-121.077
-123.271
-125.561
-127.883
-130.25
-132.673
-135.166
-137.737
-140.339
-142.953
-145.615
-148.371
-151.294
-154.461
-157.903
-161.71
-166.055
-171.012
-176.533
-182.388
-188.072
-193.071
-197.018
-199.507
-200.063
-198.448
-194.808
-189.753
-184.464
-180.173
-177.635
-177.43
-180.192
-185.97
-193.914
-202.37
-208.668
-209.831
-203.65
-188.111
-160.973
-120.985
-68.151
-3.592
69.914
148.745
229.436
307.784
378.656
437.193
478.898
499.999
497.854
472.037
424.627
358.286
276.686
179.488
61.902
-74.77
-223.081
-365.516
-475.936
-540.034
-556.9
-537.901
-505.337
-472.761
-443.877
-417.524
-387.362
-351.947
-314.863
-280.023
-251.754
-232.108
-220.473
-215.465
-215.284
-218.161
-222.598
-227.136
-230.637
-232.22
-231.452
-228.459
-223.709
-217.902
-211.886
-206.595
-202.65
-200.416
-200.015
-201.213
-203.629
-206.813
-210.214
-213.252
-215.566
-216.933
-217.244
-216.555
-214.918
-212.392
-209.111
-205.211
-200.806
-196.019
-190.968
-185.782
-180.644
-175.731
-171.186
-167.121
-163.589
-160.617
-158.209
-156.325
-154.921
-153.946
-153.344
-153.077
-153.114
-153.402
-153.878
-154.462
-155.05
-155.551
-155.894
-156.015
-155.878
-155.468
-154.784
-153.857
-152.722
-151.398
-149.899
-148.218
-146.341
-144.264
-141.989
-139.515
-136.854
-134.02
-131.026
-127.896
-124.655
-121.31
-117.857
-114.273
-110.53
-106.61
-102.506
-98.211
-93.729
-89.062
-84.211
-79.189
-74.013
-68.686
-63.203
-57.543
-51.665
-45.556
-39.225
-32.694
-26.005
-19.207
-12.351
-5.506
1.246
7.833
14.186
20.249
25.987
31.345
36.253
40.629
44.367
47.386
49.635
51.08
51.702
51.509
50.523
48.798
46.427
43.49
40.048
36.148
31.81
27.064
21.954
16.531
10.854
4.98
-1.055
-7.219
-13.481
-19.829
-26.275
-32.857
-39.653
-46.733
-54.128
-61.848
-69.876
-78.176
-86.714
-95.446
-104.305
-113.24
-122.201
-131.136
-140.011
-148.783
-157.381
-165.725
-173.706
-181.211
-188.162
-194.505
-200.204
-205.254
-209.666
-213.467
-216.723
-219.486
-221.792
-223.677
-225.156
-226.245
-226.981
-227.405
-227.565
-227.529
-227.346
-227.054
-226.688
-226.261
-225.77
-225.202
-224.517
-223.682
-222.684
-221.513
-220.176
-218.683
-217.039
-215.251
-213.33
-211.272
-209.08
-206.76
-204.31
-201.742
-199.075
-196.331
-193.545
-190.747
-187.96
-185.202
-182.484
-179.813
-177.195
-174.633
-172.124
-169.668
-167.267
-164.921
-162.632
-160.402
-158.226
-156.101
-154.019
-151.973
-149.955
-147.959
-145.978
-144.004
-142.033
-140.06
-138.079
-136.088
-134.082
-132.055
-130.001
-127.914
-125.79
-123.622
-121.407
-119.139
-116.816
-114.435
-111.994
-109.495
-106.935
-104.317
-101.642
-98.912
-96.131
-93.3
-90.423
-87.503
-84.544
-81.55
-78.526
-75.477
-72.406
-69.32
-66.225
-63.126
-60.029
-56.941
-53.867
-50.814
-47.787
-44.792
-41.837
-38.928
-36.07
-33.269
-30.532
-27.863
-25.267
-22.747
-20.306
-17.945
-15.666
-13.467
-11.347
-9.304
-7.335
-5.439
-3.613
-1.853
-0.156
1.481
3.061
4.587
6.063
7.495
8.888
10.251
11.589
12.91
14.222
15.534
16.857
18.198
19.564
20.962
22.399
23.886
25.434
27.051
28.738
30.498
32.329
34.227
36.188
38.202
40.25
42.315
44.381
46.441
48.496
50.544
52.581
54.603
56.603
58.583
60.557
62.535
64.52
66.526
68.556
70.634
72.799
75.074
77.477
80.012
82.662
85.41
88.246
91.144
94.083
97.031
99.932
102.74
105.425
107.942
110.261
112.33
114.072
115.425
116.339
116.765
116.681
116.066
114.884
113.123
110.772
107.826
104.317
100.275
95.709
90.646
85.101
79.099
72.71
66.013
59.083
52.02
44.919
37.877
31.029
24.506
18.42
12.89
7.989
3.772
0.321
-2.298
-4.011
-4.737
-4.454
-3.177
-0.932
2.219
6.181
10.851
16.065
21.633
27.393
33.188
38.893
44.42
49.656
54.488
58.801
62.468
65.402
67.564
68.92
69.466
69.239
68.293
66.737
64.722
62.366
59.768
57.002
54.11
51.146
48.172
45.244
42.423
39.756
37.263
34.965
32.878
30.987
29.264
27.65
26.056
24.419
22.701
20.877
18.945
16.901
14.735
12.451
10.057
7.565
4.994
2.358
-0.338
-3.078
-5.838
-8.589
-11.291
-13.921
-16.477
-18.958
-21.367
-23.708
-25.973
-28.165
-30.298
-32.382
-34.433
-36.456
-38.439
-40.369
-42.232
-44.004
-45.652
-47.127
-48.355
-49.267
-49.816
-49.966
-49.7
-49.006
-47.866
-46.267
-44.206
-41.69
-38.743
-35.408
-31.73
-27.776
-23.64
-19.44
-15.329
-11.458
-7.937
-4.859
-2.296
-0.301
1.072
1.778
1.793
1.102
-0.316
-2.455
-5.303
-8.84
-13.016
-17.756
-22.961
-28.512
-34.304
-40.268
-46.354
-52.537
-58.807
-65.138
-71.501
-77.898
-84.35
-90.81
-97.117
-102.971
-107.921
-111.552
-113.575
-113.685
-111.467
-106.696
-99.528
-90.512
-80.705
-71.206
-62.669
-55.687
-51.041
-49.054
-49.287
-50.565
-50.652
-46.946
-37.477
-20.268
6.949
45.799
96.935
159.875
232.445
311.192
392.48
471.955
544.098
603.161
643.596
660.266
651.266
618.605
564.48
492.041
400.433
283.654
143.271
-11.836
-161.408
-274.978
-335.483
-341.29
-306.281
-258.672
-216.976
-187.741
-168.888
-149.151
-125.048
-100.291
-80.519
-74.891
-82.196
-93.036
-98.55
-87.615
-59.479
-23.741
11.667
37.482
50.592
56.467
58.748
60.597
63.308
64.551
63.689
61.718
59.729
58.946
59.517
60.564
61.553
62.402
63.104
63.632
63.774
63.417
62.828
62.531
62.932
64.179
66.242
69.019
72.483
76.638
81.411
86.657
92.21
97.946
103.805
109.761
115.775
121.773
127.652
133.323
138.74
143.883
148.754
153.357
157.691
161.769
165.621
169.278
172.771
176.126
179.355
182.472
185.498
188.456
191.384
194.313
197.265
200.256
203.298
206.399
209.569
212.813
216.128
219.51
222.956
226.463
230.035
233.677
237.392
241.183
245.049
248.981
252.972
257.018
261.11
265.242
269.406
273.584
277.765
281.943
286.112
290.273
294.422
298.54
302.606
306.586
310.467
314.253
317.947
321.552
325.035
328.324
331.38
334.187
336.735
339.048
341.086
342.704
343.927
344.938
345.893
347.015
348.285
349.33
350.024
350.526
350.692
350.204
348.674
345.415
340.426
334.561
328.262
321.619
314.999
308.738
303.398
300.033
298.698
298.339
298.288
298.092
297.212
295.385
292.051
286.187
277.629
267.064
254.979
241.826
227.953
213.381
198.359
183.42
168.726
154.117
139.51
124.822
110.133
95.748
81.894
68.695
56.298
44.843
34.423
25.109
16.907
9.753
3.597
-1.596
-5.852
-9.182
-11.587
-13.074
-13.685
-13.497
-12.632
-11.243
-9.44
-7.303
-4.883
-2.209
0.684
3.746
6.934
10.21
13.503
16.719
19.727
22.354
24.464
25.962
26.79
26.924
26.322
24.92
22.653
19.48
15.387
10.386
4.499
-2.254
-9.803
-18.033
-26.786
-35.847
-45.02
-54.143
-63.062
-71.629
-79.702
-87.127
-93.765
-99.52
-104.32
-108.112
-110.862
-112.541
-113.162
-112.786
-111.508
-109.454
-106.752
-103.517
-99.871
-95.952
-91.886
-87.791
-83.779
-79.922
-76.283
-72.925
-69.888
-67.205
-64.893
-62.939
-61.317
-59.999
-58.945
-58.118
-57.474
-56.952
-56.507
-56.106
-55.722
-55.345
-54.972
-54.593
-54.215
-53.852
-53.517
-53.232
-53.021
-52.899
-52.891
-53.022
-53.317
-53.807
-54.515
-55.451
-56.625
-58.04
-59.695
-61.589
-63.714
-66.056
-68.606
-71.351
-74.279
-77.378
-80.632
-84.023
-87.531
-91.135
-94.812
-98.542
-102.301
-106.068
-109.824
-113.547
-117.215
-120.807
-124.297
-127.661
-130.884
-133.948
-136.84
-139.551
-142.074
-144.411
-146.571
-148.561
-150.388
-152.054
-153.558
-154.904
-156.101
-157.156
-158.077
-158.863
-159.504
-159.989
-160.299
-160.407
-160.275
-159.858
-159.101
-157.963
-156.418
-154.445
-152.038
-149.193
-145.904
-142.181
-138.042
-133.517
-128.659
-123.53
-118.214
-112.822
-107.484
-102.336
-97.522
-93.168
-89.386
-86.278
-83.925
-82.396
-81.753
-82.036
-83.279
-85.499
-88.685
-92.798
-97.767
-103.475
-109.782
-116.544
-123.602
-130.805
-138.008
-145.058
-151.831
-158.222
-164.133
-169.48
-174.171
-178.125
-181.29
-183.64
-185.186
-185.97
-186.058
-185.517
-184.432
-182.894
-181.002
-178.869
-176.58
-174.2
-171.789
-169.4
-167.103
-164.964
-163.027
-161.316
-159.84
-158.589
-157.552
-156.715
-156.049
-155.515
-155.065
-154.643
-154.212
-153.752
-153.246
-152.679
-152.028
-151.273
-150.409
-149.445
-148.398
-147.281
-146.103
-144.867
-143.583
-142.263
-140.921
-139.575
-138.225
-136.869
-135.511
-134.16
-132.837
-131.562
-130.338
-129.153
-127.991
-126.844
-125.716
-124.621
-123.571
-122.591
-121.705
-120.954
-120.393
-120.064
-119.985
-120.145
-120.505
-121.017
-121.649
-122.383
-123.197
-124.063
-124.931
-125.756
-126.493
-127.087
-127.472
-127.552
-127.218
-126.385
-125.013
-123.106
-120.713
-117.903
-114.732
-111.266
-107.585
-103.782
-99.965
-96.224
-92.637
-89.282
-86.249
-83.656
-81.615
-80.205
-79.464
-79.386
-79.934
-81.047
-82.663
-84.691
-87.02
-89.522
-92.066
-94.55
-96.891
-99.02
-100.875
-102.398
-103.586
-104.463
-105.08
-105.499
-105.766
-105.951
-106.161
-106.522
-107.198
-108.358
-110.111
-112.587
-115.948
-120.175
-125.127
-130.504
-135.701
-140.181
-143.553
-145.293
-145.006
-142.747
-138.78
-133.787
-128.927
-124.946
-122.348
-121.845
-123.557
-126.737
-130.128
-131.66
-128.819
-119.759
-102.692
-75.485
-36.87
13.099
73.061
140.583
212.825
286.67
358.44
422.521
471.712
501.981
512.074
502.707
480.224
447.024
399.201
334.008
241.397
114.653
-35.56
-193.837
-334.479
-427.957
-467.526
-459.389
-417.86
-366.556
-314.914
-260.306
-203.379
-144.181
-88.154
-48.875
-30.812
-29.347
-38.692
-49.255
-56.873
-64.799
-74.255
-85.41
-96.687
-104.268
-106.607
-104.148
-97.97
-89.663
-80.473
-71.476
-63.639
-57.503
-53.254
-50.667
-49.27
-48.652
-48.355
-47.869
-46.881
-45.223
-42.826
-39.759
-36.096
-31.886
-27.231
-22.259
-17.062
-11.707
-6.234
-0.669
4.941
10.531
16.041
21.434
26.694
31.81
36.765
41.535
46.096
50.447
54.6
58.57
62.377
66.038
69.568
72.995
76.348
79.654
82.938
86.219
89.507
92.815
96.159
99.551
103.01
106.549
110.18
113.914
117.764
121.742
125.86
130.127
134.551
139.141
143.903
148.843
153.969
159.29
164.817
170.554
176.501
182.651
188.995
195.519
202.206
209.028
215.947
222.925
229.926
236.918
243.876
250.766
257.552
264.193
270.652
276.904
282.94
288.751
294.334
299.695
304.849
309.834
314.708
319.514
324.284
329.036
333.778
338.526
343.305
348.127
352.984
357.84
362.629
367.282
371.715
375.825
379.488
382.543
384.817
386.162
386.457
385.595
383.486
380.025
375.103
368.64
360.594
350.97
339.813
327.189
313.197
297.973
281.689
264.564
246.823
228.671
210.294
191.873
173.584
155.631
138.229
121.569
105.82
91.109
77.523
65.127
53.947
43.973
35.159
27.422
20.677
14.851
9.878
5.689
2.212
-0.652
-3.023
-5.014
-6.743
-8.303
-9.762
-11.175
-12.573
-13.963
-15.338
-16.669
-17.93
-19.102
-20.171
-21.129
-21.966
-22.662
-23.183
-23.495
-23.555
-23.331
-22.809
-21.983
-20.857
-19.448
-17.778
-15.877
-13.783
-11.528
-9.14
-6.644
-4.064
-1.428
1.233
3.882
6.479
8.992
11.397
13.672
15.799
17.768
19.571
21.205
22.67
23.965
25.081
26.014
26.761
27.327
27.723
27.966
28.076
28.076
27.991
27.84
27.638
27.388
27.084
26.718
26.282
25.778
25.222
24.627
23.997
23.333
22.63
21.872
21.031
20.065
18.916
17.539
15.914
14.047
11.977
9.751
7.426
5.049
2.656
0.285
-2.023
-4.236
-6.324
-8.24
-9.918
-11.261
-12.137
-12.432
-12.074
-11.034
-9.332
-7.017
-4.169
-0.879
2.755
6.618
10.618
14.688
18.775
22.816
26.728
30.386
33.625
36.296
38.284
39.51
39.944
39.592
38.513
36.807
34.605
32.065
29.311
26.425
23.47
20.503
17.592
14.832
12.344
10.233
8.601
7.538
7.101
7.319
8.171
9.584
11.446
13.62
15.998
18.504
21.079
23.672
26.242
28.744
31.132
33.374
35.425
37.225
38.733
39.923
40.795
41.378
41.718
41.864
41.863
41.75
41.558
41.314
41.032
40.706
40.322
39.86
39.309
38.675
37.95
37.11
36.144
35.042
33.81
32.476
31.053
29.54
27.936
26.234
24.44
22.582
20.684
18.77
16.866
14.994
13.191
11.518
10.005
8.657
7.453
6.339
5.281
4.267
3.283
2.321
1.369
0.406
-0.578
-1.582
-2.616
-3.693
-4.842
-6.11
-7.519
-9.064
-10.724
-12.449
-14.204
-15.965
-17.711
-19.42
-21.074
-22.655
-24.155
-25.575
-26.911
-28.157
-29.301
-30.317
-31.197
-31.944
-32.577
-33.129
-33.632
-34.106
-34.569
-35.03
-35.497
-35.975
-36.464
-36.957
-37.442
-37.898
-38.312
-38.682
-38.998
-39.244
-39.392
-39.389
-39.198
-38.792
-38.155
-37.293
-36.21
-34.914
-33.429
-31.788
-30.039
-28.243
-26.446
-24.679
-22.975
-21.37
-19.917
-18.692
-17.75
-17.133
-16.868
-16.966
-17.435
-18.271
-19.448
-20.923
-22.641
-24.548
-26.609
-28.816
-31.172
-33.678
-36.327
-39.086
-41.925
-44.836
-47.825
-50.904
-54.101
-57.455
-61
-64.829
-69.057
-73.642
-78.435
-83.144
-87.333
-90.699
-93.038
-94.038
-93.451
-91.332
-87.992
-84.17
-80.77
-78.085
-76.155
-75.095
-74.769
-74.873
-74.661
-72.524
-66.937
-57.412
-43.641
-25.336
-2.564
25.207
58.138
95.117
135.732
178.905
220.94
258.634
289.117
312.438
336.066
365.52
399.832
430.1
433.839
390.8
292.291
138.671
-50.414
-246.517
-425.728
-562.759
-643.094
-669.155
-645.654
-584.648
-505.143
-417.435
-333.7
-268.467
-223.843
-200.126
-192.87
-188.247
-180.447
-168.894
-155.611
-148.518
-150.482
-159.375
-171.823
-182.528
-188.934
-191.266
-189.931
-185.722
-179.322
-171.145
-162.297
-154.285
-147.915
-143.429
-140.771
-139.597
-139.613
-140.633
-142.208
-143.681
-144.652
-144.932
-144.49
-143.494
-142.02
-140.032
-137.561
-134.676
-131.443
-127.953
-124.258
-120.356
-116.28
-112.083
-107.832
-103.63
-99.546
-95.603
-91.812
-88.154
-84.629
-81.27
-78.093
-75.094
-72.258
-69.556
-66.965
-64.484
-62.093
-59.758
-57.44
-55.083
-52.653
-50.137
-47.524
-44.808
-41.977
-39.002
-35.866
-32.561
-29.083
-25.425
-21.576
-17.516
-13.231
-8.724
-4.001
0.926
6.051
11.368
16.865
22.523
28.313
34.209
40.19
46.239
52.344
58.482
64.627
70.75
76.826
82.838
88.78
94.645
100.428
106.135
111.783
117.394
123.007
128.639
134.289
139.948
145.595
151.213
156.792
162.305
167.718
172.984
178.043
182.83
187.285
191.319
194.827
197.702
199.829
201.125
201.55
201.071
199.67
197.333
194.036
189.784
184.603
178.526
171.595
163.86
155.361
146.178
136.424
126.207
115.639
104.794
93.701
82.395
70.91
59.286
47.579
35.827
24.054
12.298
0.61
-10.953
-22.316
-33.437
-44.315
-54.932
-65.272
-75.286
-84.885
-94
-102.578
-110.574
-117.962
-124.713
-130.794
-136.206
-140.979
-145.155
-148.809
-151.984
-154.696
-156.974
-158.847
-160.365
-161.604
-162.618
-163.443
-164.116
-164.667
-165.125
-165.525
-165.875
-166.161
-166.359
-166.433
-166.362
-166.15
-165.791
-165.284
-164.623
-163.8
-162.818
-161.703
-160.469
-159.128
-157.695
-156.176
-154.588
-152.956
-151.301
-149.636
-147.977
-146.336
-144.73
-143.184
-141.717
-140.347
-139.088
-137.947
-136.936
-136.072
-135.366
-134.825
-134.467
-134.31
-134.388
-134.755
-135.442
-136.462
-137.817
-139.488
-141.451
-143.679
-146.128
-148.741
-151.467
-154.257
-157.071
-159.885
-162.657
-165.332
-167.841
-170.098
-172.038
-173.627
-174.838
-175.666
-176.122
-176.229
-176.034
-175.614
-175.027
-174.32
-173.529
-172.67
-171.777
-170.893
-170.068
-169.362
-168.823
-168.48
-168.361
-168.483
-168.846
-169.438
-170.225
-171.153
-172.187
-173.306
-174.49
-175.733
-177.019
-178.321
-179.617
-180.874
-182.05
-183.107
-184.004
-184.7
-185.172
-185.401
-185.372
-185.081
-184.507
-183.631
-182.443
-180.937
-179.119
-177.005
-174.617
-171.998
-169.223
-166.375
-163.54
-160.796
-158.203
-155.818
-153.704
-151.921
-150.523
-149.545
-148.985
-148.818
-148.994
-149.432
-150.035
-150.653
-151.077
-151.083
-150.432
-148.903
-146.298
-142.42
-137.058
-130.016
-121.118
-110.229
-97.28
-82.25
-65.161
-46.088
-25.143
-2.52
21.5
46.593
72.39
98.522
124.637
150.362
175.296
199.04
221.204
241.435
259.46
275.048
288.009
298.199
305.506
309.905
311.474
310.355
306.756
300.909
293.051
283.458
272.457
260.397
247.64
234.534
221.362
208.397
195.902
184.123
173.308
163.632
155.19
148.017
142.097
137.388
133.828
131.322
129.727
128.881
128.611
128.753
129.18
129.76
130.354
130.818
131.003
130.806
130.174
129.091
127.565
125.628
123.336
120.758
117.987
115.113
112.212
109.349
106.572
103.932
101.481
99.267
97.336
95.701
94.363
93.304
92.492
91.883
91.402
90.983
90.57
90.126
89.636
89.094
88.494
87.836
87.131
86.399
85.668
84.976
84.35
83.828
83.456
83.285
83.379
83.771
84.459
85.423
86.629
88.055
89.702
91.552
93.561
95.679
97.84
99.988
102.108
104.156
106.069
107.902
109.817
112.099
115.173
119.435
125.164
132.601
141.958
153.077
165.488
178.609
191.716
204.243
215.928
226.609
236.15
245.126
254.741
266.092
280.27
298.117
320.105
346.934
379.406
417.237
459.377
505.135
553.778
604.41
654.434
698.673
732.077
752.093
761.518
765.317
765.42
758.761
732.518
673.025
570.991
423.263
245.998
63.249
-97.181
-205.629
-254.564
-250.743
-210.321
-159.831
-112.91
-72.742
-38.591
-2.864
36.301
74.892
108.917
133.318
146.277
149.533
145.669
137.614
127.686
117.697
109.053
102.848
99.692
99.455
101.434
104.67
108.148
110.814
112.031
111.456
108.995
104.972
99.884
94.275
88.774
83.992
80.301
77.931
76.999
77.44
79.163
82.037
85.862
90.433
95.562
101.039
106.631
112.087
117.124
121.495
125.007
127.529
128.995
129.372
128.68
127
124.458
121.217
117.441
113.271
108.847
104.343
99.966
95.964
92.598
90.082
88.602
88.286
89.187
91.32
94.63
98.988
104.236
110.182
116.632
123.431
130.438
137.487
144.403
150.973
156.968
162.194
166.475
169.682
171.77
172.731
172.623
171.583
169.771
167.381
164.639
161.721
158.787
156.014
153.58
151.691
150.583
150.447
151.446
153.698
157.237
162.062
168.116
175.264
183.338
192.129
201.378
210.863
220.382
229.705
238.595
246.788
253.98
259.922
264.414
267.292
268.462
267.862
265.469
261.336
255.555
248.253
239.598
229.732
218.787
206.926
194.33
181.212
167.819
154.349
140.948
127.74
114.801
102.184
89.914
77.957
66.252
54.728
43.309
31.947
20.611
9.254
-2.188
-13.796
-25.671
-37.869
-50.4
-63.255
-76.381
-89.705
-103.122
-116.47
-129.565
-142.221
-154.269
-165.576
-176.034
-185.528
-193.937
-201.135
-206.988
-211.405
-214.336
-215.75
-215.655
-214.079
-211.095
-206.848
-201.532
-195.365
-188.56
-181.307
-173.784
-166.182
-158.71
-151.575
-144.986
-139.115
-134.101
-130.082
-127.187
-125.542
-125.236
-126.276
-128.593
-132.068
-136.566
-141.944
-148.047
-154.691
-161.656
-168.729
-175.713
-182.455
-188.823
-194.67
-199.823
-204.081
-207.263
-209.254
-210.02
-209.58
-207.988
-205.327
-201.721
-197.354
-192.452
-187.234
-181.89
-176.56
-171.367
-166.462
-162.028
-158.278
-155.441
-153.689
-153.147
-153.903
-156.002
-159.449
-164.186
-170.074
-176.926
-184.54
-192.728
-201.333
-210.203
-219.145
-227.958
-236.42
-244.279
-251.321
-257.345
-262.156
-265.605
-267.583
-268.032
-266.976
-264.492
-260.689
-255.711
-249.711
-242.863
-235.385
-227.496
-219.419
-211.419
-203.735
-196.609
-190.292
-184.993
-180.889
-178.13
-176.825
-177.031
-178.761
-181.971
-186.56
-192.4
-199.312
-207.111
-215.598
-224.536
-233.696
-242.846
-251.76
-260.248
-268.141
-275.269
-281.471
-286.618
-290.622
-293.442
-295.096
-295.629
-295.118
-293.661
-291.382
-288.438
-284.989
-281.192
-277.18
-273.06
-268.926
-264.877
-261.021
-257.449
-254.226
-251.395
-248.971
-246.954
-245.334
-244.081
-243.137
-242.426
-241.866
-241.375
-240.899
-240.4
-239.849
-239.218
-238.478
-237.606
-236.595
-235.444
-234.154
-232.727
-231.166
-229.476
-227.684
-225.823
-223.931
-222.053
-220.215
-218.437
-216.732
-215.11
-213.569
-212.103
-210.693
-209.307
-207.923
-206.533
-205.13
-203.724
-202.322
-200.926
-199.54
-198.169
-196.811
-195.476
-194.172
-192.905
-191.699
-190.588
-189.622
-188.882
-188.436
-188.322
-188.571
-189.178
-190.115
-191.353
-192.844
-194.525
-196.348
-198.256
-200.19
-202.113
-203.973
-205.7
-207.214
-208.39
-209.104
-209.271
-208.83
-207.756
-206.08
-203.842
-201.111
-198.004
-194.622
-191.073
-187.48
-183.922
-180.472
-177.223
-174.266
-171.731
-169.772
-168.5
-168.002
-168.33
-169.483
-171.437
-174.142
-177.479
-181.313
-185.502
-189.888
-194.354
-198.815
-203.175
-207.343
-211.209
-214.631
-217.493
-219.71
-221.213
-221.965
-221.956
-221.209
-219.829
-217.968
-215.798
-213.495
-211.186
-208.974
-206.982
-205.329
-204.145
-203.577
-203.725
-204.702
-206.665
-209.638
-213.5
-217.98
-222.563
-226.711
-230.034
-232.013
-232.05
-229.963
-225.898
-220.403
-214.549
-209.106
-204.322
-200.674
-198.761
-198.403
-198.809
-198.355
-194.487
-185.316
-169.778
-146.359
-113.272
-69.681
-15.771
47.014
115.947
188.52
262.642
333.698
394.478
439.233
464.411
471.572
468.038
457.755
437.023
396.009
319.028
194.526
28.748
-157.408
-331.926
-459.499
-524.724
-532.656
-502
-460.89
-425.766
-399.495
-378.834
-355.71
-327.923
-298.417
-270.254
-247.256
-230.139
-217.442
-207.821
-198.763
-188.235
-175.768
-161.301
-145.184
-128.277
-111.014
-93.699
-77.467
-63.338
-51.729
-42.89
-36.641
-32.552
-30.502
-30.407
-31.757
-34.063
-36.937
-39.952
-42.936
-45.779
-48.214
-50.006
-51.019
-51.14
-50.346
-48.674
-46.107
-42.654
-38.368
-33.307
-27.574
-21.297
-14.588
-7.57
-0.359
6.942
14.218
21.367
28.311
34.986
41.355
47.408
53.121
58.476
63.451
68.02
72.179
75.951
79.365
82.472
85.314
87.927
90.351
92.622
94.773
96.843
98.853
100.823
102.792
104.818
106.989
109.425
112.216
115.421
119.076
123.194
127.795
132.908
138.553
144.753
151.522
158.878
166.861
175.512
184.839
194.81
205.338
216.286
227.535
238.994
250.585
262.239
273.877
285.403
296.727
307.767
318.432
328.605
338.126
346.822
354.54
361.178
366.693
371.088
374.366
376.515
377.525
377.394
376.135
373.77
370.315
365.771
360.152
353.525
346.015
337.777
328.973
319.727
310.125
300.235
290.125
279.873
269.556
259.24
248.983
238.859
228.964
219.422
210.353
201.824
193.856
186.433
179.525
173.118
167.215
161.811
156.891
152.434
148.416
144.827
141.65
138.838
136.317
133.977
131.707
129.436
127.116
124.723
122.243
119.657
116.944
114.105
111.144
108.07
104.886
101.586
98.172
94.664
91.104
87.556
84.078
80.707
77.471
74.386
71.464
68.717
66.146
63.741
61.486
59.368
57.38
55.522
53.787
52.163
50.63
49.166
47.753
46.381
45.044
43.739
42.466
41.222
40.014
38.853
37.751
36.718
35.763
34.884
34.084
33.362
32.718
32.148
31.645
31.195
30.785
30.406
30.047
29.7
29.359
29.02
28.679
28.332
27.984
27.646
27.337
27.083
26.909
26.836
26.891
27.103
27.503
28.114
28.956
30.046
31.392
33
34.874
37.015
39.411
42.036
44.85
47.796
50.826
53.895
56.962
59.982
62.905
65.688
68.283
70.632
72.689
74.404
75.732
76.658
77.155
77.187
76.728
75.753
74.256
72.298
69.901
67.03
63.759
60.21
56.642
53.559
51.259
49.786
49.223
49.573
50.698
52.556
54.75
56.323
56.899
56.573
55.545
54.695
55.039
57.268
62.631
72.908
88.984
111.352
140.213
174.291
212.007
251.927
291.769
329.132
362.444
390.053
410.514
423.933
430.793
431.884
428.951
423.375
415.954
407.848
400.194
393.347
387.498
382.395
377.116
371.266
364.88
357.854
350.154
341.879
333.108
324.197
315.813
308.353
301.996
296.849
292.871
290.035
288.347
287.701
287.898
288.743
290.046
291.636
293.411
295.262
297.075
298.76
300.22
301.375
302.179
302.608
302.65
302.309
301.593
300.526
299.15
297.525
295.727
293.838
291.93
290.073
288.32
286.711
285.283
284.061
283.058
282.272
281.695
281.307
281.092
281.031
281.098
281.258
281.475
281.705
281.906
282.031
282.045
281.915
281.615
281.12
280.41
279.47
278.29
276.863
275.186
273.255
271.068
268.621
265.912
262.94
259.711
256.23
252.503
248.539
244.349
239.954
235.392
230.698
225.91
221.058
216.172
211.278
206.408
201.599
196.887
192.305
187.886
183.652
179.635
175.857
172.323
169.005
165.828
162.707
159.561
156.324
152.956
149.406
145.594
141.429
136.827
131.692
125.986
119.637
112.487
104.532
95.916
86.962
78.294
70.514
64.01
59.266
56.827
56.735
58.761
62.247
65.717
68.026
68.545
66.401
61.071
53.056
43.315
33.752
27.601
27.399
35.193
53.554
84.127
127.283
182.678
248.203
320.139
395.049
468.765
535.86
591.639
631.508
651.002
647.457
618.647
564.105
487.713
394.11
287.509
169.736
37.4
-109.405
-262.64
-407.788
-523.29
-591.578
-607.959
-575.244
-504.53
-413.951
-317.349
-230.471
-170.064
-139.436
-137.198
-154.489
-172.566
-182.4
-181.445
-170.665
-158.315
-148.006
-138.285
-127.72
-113.657
-95.545
-75.499
-55.645
-37.631
-22.34
-10.053
-0.822
5.416
8.847
9.908
9.216
7.356
4.746
1.681
-1.654
-5.127
-8.579
-11.901
-15.043
-17.989
-20.73
-23.249
-25.529
-27.557
-29.361
-30.976
-32.426
-33.758
-35.016
-36.241
-37.474
-38.75
-40.091
-41.497
-42.956
-44.432
-45.874
-47.225
-48.421
-49.385
-50.027
-50.273
-50.064
-49.343
-48.061
-46.17
-43.634
-40.437
-36.584
-32.106
-27.044
-21.446
-15.371
-8.876
-2.012
5.144
12.512
20.016
27.578
35.122
42.577
49.863
56.917
63.719
70.267
76.599
82.765
88.804
94.759
100.665
106.55
112.464
118.465
124.605
130.961
137.624
144.681
152.239
160.375
169.101
178.393
188.181
198.359
208.843
219.543
230.357
241.19
251.926
262.44
272.613
282.296
291.298
299.416
306.424
312.132
316.421
319.217
320.49
320.247
318.491
315.232
310.507
304.359
296.829
287.971
277.83
266.479
254.049
240.711
226.659
212.068
197.067
181.754
166.213
150.519
134.743
118.954
103.21
87.569
72.115
56.95
42.18
27.899
14.152
0.939
-11.754
-23.937
-35.605
-46.743
-57.345
-67.42
-76.971
-85.999
-94.512
-102.527
-110.098
-117.312
-124.254
-131.002
-137.607
-144.09
-150.465
-156.748
-162.949
-169.074
-175.12
-181.071
-186.918
-192.659
-198.285
-203.778
-209.096
-214.177
-218.968
-223.427
-227.522
-231.24
-234.571
-237.506
-240.05
-242.217
-244.023
-245.49
-246.636
-247.47
-248.011
-248.279
-248.304
-248.123
-247.768
-247.265
-246.636
-245.9
-245.076
-244.179
-243.222
-242.209
-241.147
-240.045
-238.913
-237.764
-236.61
-235.459
-234.321
-233.205
-232.12
-231.076
-230.082
-229.145
-228.273
-227.472
-226.747
-226.107
-225.556
-225.099
-224.74
-224.48
-224.324
-224.274
-224.334
-224.503
-224.782
-225.169
-225.66
-226.252
-226.942
-227.723
-228.591
-229.536
-230.555
-231.644
-232.797
-234.011
-235.275
-236.578
-237.91
-239.264
-240.637
-242.023
-243.421
-244.828
-246.25
-247.702
-249.197
-250.749
-252.361
-254.027
-255.742
-257.503
-259.304
-261.142
-263.006
-264.866
-266.7
-268.491
-270.219
-271.869
-273.409
-274.786
-275.955
-276.878
-277.533
-277.922
-278.038
-277.879
-277.453
-276.781
-275.909
-274.912
-273.859
-272.801
-271.796
-270.894
-270.156
-269.672
-269.514
-269.738
-270.383
-271.468
-273.017
-275.059
-277.6
-280.613
-284.036
-287.766
-291.701
-295.755
-299.825
-303.822
-307.655
-311.214
-314.411
-317.18
-319.46
-321.199
-322.341
-322.816
-322.573
-321.597
-319.905
-317.55
-314.597
-311.108
-307.165
-302.84
-298.198
-293.31
-288.223
-282.97
-277.589
-272.118
-266.6
-261.092
-255.652
-250.319
-245.116
-240.047
-235.101
-230.262
-225.498
-220.785
-216.108
-211.457
-206.839
-202.27
-197.765
-193.339
-189.007
-184.772
-180.629
-176.576
-172.61
-168.736
-164.972
-161.344
-157.883
-154.617
-151.57
-148.756
-146.178
-143.83
-141.692
-139.737
-137.933
-136.253
-134.678
-133.192
-131.778
-130.424
-129.1
-127.77
-126.403
-124.966
-123.43
-121.777
-120.014
-118.166
-116.29
-114.459
-112.743
-111.204
-109.907
-108.93
-108.352
-108.249
-108.707
-109.775
-111.523
-114.085
-117.452
-121.498
-125.986
-130.469
-134.523
-137.897
-140.21
-140.998
-140.213
-137.97
-134.679
-131.378
-128.766
-127.102
-126.938
-128.659
-131.903
-136.164
-140.284
-141.985
-139.5
-131.458
-116.098
-91.974
-58.416
-15.071
37.694
96.524
156.514
213.691
263.269
304.632
342.154
374.426
397.564
403.129
374.562
305.78
197.843
55.18
-105.283
-268.414
-419.525
-537.277
-609.329
-633.377
-613.49
-565.587
-504.092
-432.567
-353.891
-270.927
-190.652
-127.309
-90.012
-77.857
-81.464
-88.367
-90.809
-87.984
-84.165
-82.225
-81.591
-80.13
-74.789
-64.568
-50.79
-35.06
-19.214
-4.944
6.851
15.694
21.374
24.168
24.593
23.147
20.468
17.249
13.965
10.948
8.43
6.483
5.144
4.46
4.407
4.93
6
7.58
9.637
12.137
15.015
18.186
21.564
25.068
28.623
32.145
35.55
38.754
41.7
44.358
46.714
48.764
50.518
51.996
53.234
54.281
55.188
56.004
56.775
57.545
58.359
59.263
60.3
61.514
62.942
64.614
66.561
68.803
71.354
74.221
77.405
80.897
84.688
88.761
93.093
97.664
102.454
107.448
112.635
118
123.523
129.182
134.954
140.817
146.757
152.757
158.797
164.87
170.975
177.127
183.357
189.685
196.117
202.655
209.291
216.011
222.797
229.619
236.436
243.202
249.873
256.404
262.759
268.884
274.704
280.132
285.066
289.407
293.069
295.963
297.992
299.085
299.188
298.273
296.347
293.411
289.462
284.498
278.517
271.531
263.573
254.676
244.874
234.215
222.763
210.608
197.876
184.677
171.1
157.22
143.089
128.768
114.344
99.902
85.526
71.307
57.337
43.732
30.633
18.175
6.45
-4.483
-14.612
-23.926
-32.4
-40.013
-46.746
-52.594
-57.575
-61.714
-65.026
-67.544
-69.319
-70.431
-71.009
-71.19
-71.077
-70.748
-70.252
-69.629
-68.931
-68.208
-67.489
-66.787
-66.099
-65.419
-64.761
-64.143
-63.57
-63.036
-62.496
-61.884
-61.152
-60.275
-59.234
-58.017
-56.592
-54.917
-52.986
-50.824
-48.488
-46.041
-43.523
-40.958
-38.369
-35.788
-33.271
-30.898
-28.728
-26.804
-25.172
-23.883
-23.024
-22.703
-22.986
-23.885
-25.368
-27.375
-29.869
-32.821
-36.187
-39.909
-43.902
-48.062
-52.316
-56.61
-60.879
-65.049
-69.003
-72.596
-75.728
-78.345
-80.434
-82.009
-83.075
-83.632
-83.712
-83.374
-82.698
-81.779
-80.677
-79.431
-78.089
-76.709
-75.369
-74.171
-73.182
-72.436
-71.956
-71.749
-71.833
-72.229
-72.933
-73.92
-75.156
-76.596
-78.215
-80.004
-81.937
-83.986
-86.112
-88.276
-90.466
-92.687
-94.943
-97.229
-99.535
-101.836
-104.113
-106.349
-108.519
-110.601
-112.569
-114.407
-116.124
-117.742
-119.301
-120.823
-122.307
-123.75
-125.141
-126.48
-127.777
-129.051
-130.323
-131.639
-133.068
-134.683
-136.563
-138.755
-141.264
-144.077
-147.152
-150.454
-153.954
-157.625
-161.436
-165.361
-169.369
-173.424
-177.491
-181.491
-185.299
-188.783
-191.786
-194.171
-195.839
-196.7
-196.676
-195.706
-193.73
-190.691
-186.54
-181.215
-174.639
-166.745
-157.471
-146.792
-134.743
-121.388
-106.823
-91.163
-74.513
-56.996
-38.757
-19.931
-0.663
18.874
38.512
58.046
77.233
95.839
113.629
130.373
145.894
160.049
172.711
183.79
193.202
200.877
206.789
210.92
213.277
213.916
212.918
210.407
206.559
201.545
195.534
188.725
181.289
173.4
165.264
157.067
148.969
141.13
133.671
126.712
120.429
114.932
110.221
106.334
103.376
101.581
101.47
103.514
107.792
114.265
122.85
133.146
144.659
156.546
167.097
174.583
178.177
177.65
173.405
166.569
158.257
150.13
145.224
146.777
156.958
176.684
205.419
241.567
283.241
327.457
369.53
404.008
425.833
431.301
418.214
385.193
331.851
259.672
172.122
74.24
-28.216
-129.83
-225.3
-308.989
-376.144
-423.792
-450.699
-457.156
-444.341
-414.275
-370.41
-317.604
-260.869
-204.443
-151.597
-105.15
-67.942
-41.672
-26.366
-20.682
-22.403
-29.378
-39.892
-51.846
-62.539
-70.14
-73.87
-73.717
-70.513
-65.098
-58.04
-50.346
-43.427
-38.174
-35.002
-33.957
-34.57
-36.425
-39.247
-42.555
-45.776
-48.524
-50.55
-51.779
-52.332
-52.29
-51.697
-50.634
-49.177
-47.395
-45.344
-43.043
-40.495
-37.718
-34.751
-31.655
-28.496
-25.333
-22.226
-19.211
-16.314
-13.566
-10.975
-8.542
-6.272
-4.16
-2.207
-0.44
1.128
2.494
3.664
4.679
5.584
6.421
7.249
8.128
9.122
10.319
11.784
13.562
15.707
18.263
21.29
24.869
29.064
33.912
39.434
45.617
52.439
59.868
67.848
76.302
85.134
94.235
103.516
112.91
122.344
131.749
141.048
150.156
159.013
167.573
175.803
183.685
191.208
198.377
205.216
211.754
218.03
224.074
229.891
235.469
240.799
245.856
250.608
255.01
258.988
262.476
265.415
267.747
269.413
270.337
270.445
269.68
268.005
265.404
261.878
257.438
252.094
245.881
238.856
231.097
222.711
213.778
204.36
194.513
184.299
173.795
163.073
152.178
141.123
129.917
118.572
107.109
95.566
83.967
72.32
60.626
48.885
37.126
25.407
13.801
2.363
-8.857
-19.806
-30.415
-40.579
-50.205
-59.227
-67.595
-75.283
-82.268
-88.522
-94.027
-98.787
-102.831
-106.216
-109.017
-111.292
-113.093
-114.477
-115.51
-116.279
-116.863
-117.314
-117.675
-117.972
-118.231
-118.481
-118.743
-119.017
-119.289
-119.536
-119.72
-119.822
-119.831
-119.734
-119.52
-119.171
-118.675
-118.035
-117.262
-116.37
-115.37
-114.273
-113.087
-111.835
-110.543
-109.238
-107.95
-106.701
-105.506
-104.383
-103.344
-102.401
-101.564
-100.836
-100.215
-99.702
-99.3
-99.009
-98.834
-98.773
-98.823
-98.983
-99.249
-99.621
-100.096
-100.672
-101.345
-102.114
-102.976
-103.926
-104.963
-106.08
-107.272
-108.533
-109.857
-111.236
-112.664
-114.135
-115.644
-117.184
-118.749
-120.329
-121.918
-123.503
-125.076
-126.625
-128.138
-129.605
-131.013
-132.353
-133.616
-134.795
-135.88
-136.862
-137.728
-138.463
-139.057
-139.503
-139.793
-139.926
-139.902
-139.729
-139.421
-138.997
-138.466
-137.833
-137.097
-136.249
-135.282
-134.188
-132.957
-131.589
-130.082
-128.432
-126.641
-124.709
-122.622
-120.363
-117.9
-115.192
-112.221
-108.982
-105.48
-101.748
-97.821
-93.741
-89.573
-85.364
-81.156
-76.993
-72.905
-68.921
-65.091
-61.465
-58.11
-55.109
-52.513
-50.36
-48.673
-47.443
-46.65
-46.258
-46.202
-46.428
-46.895
-47.568
-48.426
-49.452
-50.609
-51.858
-53.149
-54.419
-55.624
-56.733
-57.722
-58.587
-59.336
-59.99
-60.593
-61.177
-61.751
-62.302
-62.8
-63.217
-63.533
-63.737
-63.817
-63.76
-63.543
-63.147
-62.547
-61.721
-60.654
-59.305
-57.64
-55.654
-53.377
-50.892
-48.312
-45.726
-43.201
-40.79
-38.567
-36.655
-35.195
-34.317
-34.117
-34.607
-35.811
-37.834
-40.649
-44.117
-47.922
-51.472
-54.34
-56.418
-57.587
-57.746
-56.943
-55.075
-52.33
-49.487
-46.778
-43.99
-40.899
-36.813
-31.01
-23.258
-12.972
0.982
19.004
41.385
68.491
99.843
134.941
173.34
214.329
257.132
300.722
343.44
381.915
411.416
429.463
435.233
429.38
416.798
397.554
366.411
319.039
244.522
137.104
5.897
-136.459
-266.406
-357.856
-403.271
-403.901
-371.37
-327.034
-281.404
-238.335
-198.477
-155.803
-108.85
-60.543
-14.275
24.426
52.65
70.986
80.944
84.71
84.103
80.207
74.589
69.559
66.651
66.451
68.97
73.562
79.608
86.739
94.13
100.475
104.993
107.392
107.681
106.333
103.745
100.153
96.049
92.076
88.657
86.05
84.339
83.395
83.144
83.572
84.595
86.116
88.036
90.252
92.706
95.371
98.194
101.105
104.009
106.799
109.404
111.786
113.923
115.808
117.436
118.803
119.933
120.862
121.632
122.285
122.853
123.37
123.879
124.429
125.07
125.848
126.786
127.897
129.202
130.717
132.46
134.448
136.674
139.114
141.741
144.529
147.446
150.459
153.523
156.588
159.63
162.644
165.647
168.654
171.665
174.678
177.694
180.72
183.78
186.913
190.167
193.597
197.273
201.263
205.639
210.459
215.745
221.486
227.642
234.166
241.016
248.14
255.477
262.959
270.493
277.971
285.27
292.238
298.715
304.552
309.608
313.762
316.928
319.038
320.063
319.985
318.789
316.48
313.074
308.593
303.099
296.681
289.449
281.548
273.121
264.294
255.189
245.915
236.565
227.233
217.998
208.939
200.154
191.737
183.777
176.359
169.519
163.259
157.567
152.411
147.768
143.632
140.004
136.883
134.285
132.213
130.661
129.586
128.897
128.477
128.202
127.962
127.695
127.365
126.948
126.421
125.753
124.907
123.833
122.475
120.754
118.591
115.936
112.799
109.254
105.418
101.434
97.409
93.418
89.518
85.753
82.166
78.791
75.658
72.802
70.278
68.166
66.555
65.501
64.999
64.99
65.369
66.008
66.805
67.677
68.545
69.347
70.026
70.544
70.88
71.013
70.903
70.49
69.712
68.527
66.934
64.959
62.657
60.092
57.305
54.336
51.215
47.958
44.592
41.122
37.541
33.847
30.009
26.011
21.859
17.538
13.031
8.341
3.355
-2.04
-7.745
-13.658
-19.628
-25.451
-31.232
-37.158
-43.081
-48.804
-54.482
-60.301
-66.785
-74.557
-83.258
-92.149
-100.856
-109.154
-116.635
-122.837
-126.561
-126.384
-122.45
-115.803
-107.524
-98.505
-89.367
-80.719
-74.02
-71.109
-72.363
-76.979
-83.607
-91.032
-98.667
-106.105
-112.426
-116.321
-117.238
-115.535
-112.211
-108.212
-103.924
-99.467
-95.037
-91.066
-87.875
-85.403
-83.242
-80.991
-78.498
-75.793
-72.999
-70.161
-67.237
-64.24
-61.249
-58.352
-55.602
-52.992
-50.46
-47.955
-45.461
-42.98
-40.524
-38.099
-35.697
-33.318
-30.973
-28.672
-26.421
-24.219
-22.051
-19.9
-17.771
-15.68
-13.658
-11.735
-9.933
-8.272
-6.786
-5.511
-4.458
-3.611
-2.917
-2.317
-1.779
-1.289
-0.852
-0.472
-0.127
0.213
0.577
0.998
1.509
2.155
3.018
4.174
5.652
7.431
9.436
11.578
13.797
16.054
18.318
20.558
22.731
24.794
26.714
28.46
29.992
31.251
32.149
32.605
32.584
32.099
31.212
30.016
28.59
27.014
25.368
23.728
22.169
20.757
19.553
18.605
17.965
17.688
17.827
18.43
19.523
21.096
23.09
25.408
27.936
30.54
33.103
35.501
37.588
39.222
40.243
40.508
39.928
38.387
35.747
32
27.242
21.706
15.841
10.066
4.662
0.055
-3.255
-5.15
-5.778
-5.655
-5.765
-6.775
-8.859
-12.381
-17.751
-24.649
-32.21
-38.788
-41.896
-39.731
-31.256
-15.034
10.401
45.592
90.416
143.381
201.639
263.015
325.46
385.453
438.992
482.462
512.005
525.052
520.499
496.173
451.924
391.673
318.106
233.722
140.566
36.837
-71.986
-172.981
-253.937
-302.236
-316.37
-306.157
-280.623
-249.154
-215.914
-179.403
-140.966
-102.064
-64.786
-32.935
-8.229
8.479
17.329
20.57
20.846
20.365
20.574
21.888
24.575
29.271
36.103
44.525
53.391
61.205
67.155
71.106
73.03
72.87
70.689
66.702
61.489
55.907
50.496
45.567
41.345
37.948
35.562
34.35
34.313
35.42
37.677
40.85
44.678
49.257
54.473
60.096
66.366
71.946
75.601
78.917
82.294
88.589
101.186
115.894
129.974
139.134
137.483
129.916
120.588
112.504
111.273
112.891
112.988
112.384
109.461
108.013
112.663
118.663
122.404
118.905
102.511
78.602
52.355
28.115
12.005
2.663
-0.533
4.153
15.827
35.302
62.457
94.346
128.453
162.303
192.664
216.72
232.816
240.459
240.582
235.49
227.62
218.703
210.515
204.901
203.031
205.432
211.823
220.9
231.176
241.797
252.167
261.758
270.326
277.709
283.918
289.391
294.659
299.945
305.275
310.543
315.509
319.997
323.888
326.986
329.087
330.049
329.759
328.162
325.247
320.972
315.274
308.091
299.385
289.165
277.497
264.482
250.252
234.966
218.789
201.898
184.47
166.671
148.653
130.565
112.559
94.8
77.478
60.784
44.874
29.874
15.862
2.891
-9.016
-19.864
-29.68
-38.516
-46.438
-53.506
-59.778
-65.323
-70.222
-74.583
-78.54
-82.229
-85.753
-89.192
-92.593
-95.983
-99.384
-102.803
-106.233
-109.657
-113.05
-116.382
-119.631
-122.761
-125.722
-128.454
-130.868
-132.878
-134.435
-135.513
-136.123
-136.306
-136.096
-135.532
-134.658
-133.514
-132.141
-130.587
-128.894
-127.113
-125.309
-123.554
-121.939
-120.559
-119.477
-118.732
-118.331
-118.246
-118.451
-118.913
-119.599
-120.481
-121.544
-122.784
-124.19
-125.741
-127.384
-129.035
-130.63
-132.131
-133.526
-134.841
-136.088
-137.233
-138.323
-139.482
-140.76
-142.176
-143.551
-144.469
-144.761
-144.541
-143.991
-143.41
-143.117
-143.312
-144.69
-148.445
-155.297
-165.514
-178.713
-193.734
-209.491
-225.125
-239.207
-249.881
-255.638
-255.238
-248.776
-237.818
-223.992
-208.929
-194.452
-182.289
-174.2
-172.019
-176.149
-185.513
-198.661
-213.706
-229.077
-243.773
-256.562
-266.034
-271.627
-273.575
-272.625
-270.106
-266.895
-263.299
-259.761
-256.752
-254.554
-253.313
-252.845
-252.613
-252.331
-251.967
-251.505
-251.007
-250.479
-249.838
-249.087
-248.304
-247.515
-246.714
-245.846
-244.792
-243.458
-241.778
-239.699
-237.181
-234.185
-230.679
-226.66
-222.148
-217.188
-211.855
-206.238
-200.438
-194.565
-188.725
-183.028
-177.593
-172.544
-168.007
-164.104
-160.948
-158.654
-157.3
-156.922
-157.527
-159.078
-161.501
-164.693
-168.518
-172.815
-177.448
-182.29
-187.223
-192.137
-196.911
-201.421
-205.545
-209.155
-212.156
-214.493
-216.132
-217.08
-217.388
-217.135
-216.44
-215.452
-214.289
-213.037
-211.766
-210.521
-209.347
-208.293
-207.399
-206.71
-206.261
-206.072
-206.158
-206.525
-207.145
-207.969
-208.924
-209.92
-210.898
-211.831
-212.711
-213.549
-214.373
-215.222
-216.146
-217.202
-218.434
-219.868
-221.511
-223.351
-225.383
-227.606
-230.013
-232.586
-235.27
-237.98
-240.624
-243.105
-245.302
-247.068
-248.233
-248.618
-248.078
-246.508
-243.841
-240.041
-235.084
-228.967
-221.727
-213.445
-204.258
-194.34
-183.865
-173.008
-161.978
-151.02
-140.417
-130.46
-121.39
-113.402
-106.655
-101.28
-97.406
-95.125
-94.464
-95.393
-97.814
-101.588
-106.577
-112.628
-119.542
-127.084
-134.97
-142.91
-150.676
-158.073
-164.931
-171.091
-176.379
-180.656
-183.845
-185.914
-186.888
-186.817
-185.75
-183.76
-180.961
-177.503
-173.584
-169.383
-165.016
-160.575
-156.144
-151.817
-147.74
-144.008
-140.633
-137.671
-135.2
-133.278
-131.966
-131.255
-130.998
-131.105
-131.597
-132.281
-132.746
-132.89
-132.787
-132.364
-131.995
-130.883
-126.778
-120.261
-113.369
-109.592
-115.364
-130.049
-147.278
-160.621
-160.949
-148.044
-130.509
-114.966
-108.67
-112.623
-120.385
-128.086
-132.975
-134.328
-134.774
-135.436
-136.234
-137.24
-138.042
-138.544
-139.088
-139.761
-140.491
-141.278
-142.127
-143.015
-143.921
-144.803
-145.589
-146.252
-146.815
-147.286
-147.668
-147.964
-148.17
-148.29
-148.335
-148.315
-148.23
-148.078
-147.846
-147.52
-147.096
-146.576
-145.968
-145.284
-144.519
-143.656
-142.674
-141.562
-140.313
-138.927
-137.389
-135.678
-133.784
-131.726
-129.535
-127.247
-124.872
-122.401
-119.813
-117.093
-114.244
-111.282
-108.222
-105.059
-101.775
-98.347
-94.77
-91.054
-87.19
-83.143
-78.873
-74.349
-69.588
-64.641
-59.554
-54.375
-49.152
-43.937
-38.812
-33.881
-29.24
-25.039
-21.482
-18.666
-16.576
-15.047
-13.708
-12.21
-10.292
-7.622
-3.741
1.619
8.302
15.58
22.165
26.919
29.289
29.045
25.898
19.711
11.171
2.108
-4.532
-5.769
0.336
14.99
39.615
75.863
124.451
184.486
253.618
328.943
407.923
488.409
566.067
633.99
687.546
724.187
744.139
751.229
743.962
716.986
665.656
584.206
472.482
336.159
185.412
35.91
-94.045
-186.819
-235.88
-243.889
-219.992
-177.803
-122.244
-55.793
15.788
84.139
135.777
161.104
160.685
144.474
125.152
111.133
104.065
99.376
93.266
85.426
77.996
74.473
76.218
81.814
88.533
93.83
96.299
95.76
92.843
88.308
82.748
77.408
74.515
75.639
81.754
92.935
107.454
123.754
141.101
158.311
173.768
186.427
195.249
199.864
201.784
202.193
201.446
200.11
198.572
196.976
195.882
195.555
195.115
193.948
191.882
188.699
184.619
179.913
174.496
168.381
161.967
155.571
149.451
143.901
138.962
134.691
131.259
128.781
127.323
126.932
127.595
129.264
131.897
135.417
139.718
144.703
150.263
156.285
162.653
169.233
175.914
182.592
189.183
195.62
201.836
207.779
213.415
218.737
223.754
228.492
232.983
237.25
241.326
245.249
249.06
252.807
256.523
260.225
263.925
267.63
271.347
275.075
278.808
282.525
286.212
289.863
293.468
297.023
300.52
303.948
307.303
310.596
313.829
317.005
320.124
323.171
326.131
328.992
331.728
334.31
336.687
338.783
340.537
341.895
342.804
343.22
343.054
342.199
340.589
338.176
334.941
330.9
325.978
320.089
313.325
305.798
297.69
289.235
280.392
271.04
261.296
251.313
241.068
230.51
219.267
206.876
193.553
179.789
165.976
152.396
139.233
126.779
115.856
107.408
101.609
97.959
95.54
93.651
92.027
90.271
87.563
82.874
75.524
65.769
54.713
43.206
31.6
20.247
9.539
0.137
-7.17
-12.364
-16.195
-19.234
-21.805
-24.098
-26.084
-27.943
-30.1
-32.625
-35.242
-37.734
-39.907
-41.688
-43.196
-44.454
-45.381
-45.967
-46.247
-46.261
-46.077
-45.712
-45.132
-44.337
-43.343
-42.182
-40.915
-39.603
-38.313
-37.144
-36.194
-35.547
-35.281
-35.446
-36.064
-37.15
-38.693
-40.666
-43.024
-45.692
-48.572
-51.557
-54.527
-57.344
-59.858
-61.883
-63.222
-63.709
-63.193
-61.558
-58.732
-54.673
-49.389
-42.953
-35.469
-27.089
-18.007
-8.431
1.415
11.276
20.915
30.077
38.493
45.928
52.153
56.95
60.167
61.689
61.463
59.518
55.931
50.82
44.386
36.857
28.485
19.557
10.307
0.95
-8.286
-17.197
-25.566
-33.17
-39.846
-45.457
-49.899
-53.12
-55.096
-55.855
-55.525
-54.276
-52.302
-49.822
-46.996
-43.949
-40.823
-37.741
-34.833
-32.226
-30.01
-28.267
-27.097
-26.597
-26.855
-27.906
-29.69
-32.113
-35.059
-38.386
-41.984
-45.743
-49.526
-53.22
-56.728
-59.971
-62.898
-65.441
-67.497
-68.941
-69.648
-69.536
-68.575
-66.756
-64.093
-60.639
-56.458
-51.661
-46.394
-40.777
-34.919
-28.904
-22.793
-16.666
-10.628
-4.8
0.687
5.707
10.157
13.933
16.962
19.219
20.706
21.486
21.66
21.319
20.557
19.456
18.07
16.456
14.684
12.827
10.988
9.292
7.848
6.758
6.099
5.899
6.161
6.842
7.852
9.086
10.429
11.77
13.025
14.127
14.989
15.527
15.629
15.15
13.981
12.037
9.248
5.59
1.067
-4.281
-10.353
-17.009
-24.113
-31.522
-39.106
-46.757
-54.333
-61.698
-68.716
-75.222
-81.092
-86.226
-90.532
-93.948
-96.445
-98.016
-98.713
-98.619
-97.802
-96.342
-94.313
-91.783
-88.849
-85.595
-82.08
-78.377
-74.537
-70.599
-66.604
-62.583
-58.555
-54.532
-50.511
-46.48
-42.456
-38.464
-34.535
-30.703
-26.99
-23.436
-20.117
-17.115
-14.521
-12.427
-10.922
-10.086
-9.994
-10.711
-12.282
-14.726
-18.028
-22.135
-26.969
-32.448
-38.483
-44.956
-51.713
-58.571
-65.332
-71.803
-77.79
-83.104
-87.562
-90.982
-93.225
-94.189
-93.816
-92.095
-89.052
-84.726
-79.179
-72.524
-64.912
-56.545
-47.653
-38.462
-29.209
-20.145
-11.537
-3.653
3.267
9.033
13.498
16.544
18.081
18.043
16.4
13.187
8.486
2.43
-4.815
-13.071
-22.142
-31.796
-41.769
-51.792
-61.617
-71.031
-79.859
-87.936
-95.101
-101.222
-106.201
-109.994
-112.598
-114.043
-114.382
-113.688
-112.056
-109.615
-106.524
-102.949
-99.05
-94.966
-90.806
-86.679
-82.693
-78.936
-75.468
-72.325
-69.509
-67.005
-64.794
-62.842
-61.102
-59.515
-57.995
-56.448
-54.775
-52.888
-50.72
-48.216
-45.334
-42.059
-38.391
-34.354
-29.993
-25.36
-20.52
-15.558
-10.56
-5.626
-0.875
3.59
7.608
10.97
13.614
15.597
17.095
18.464
19.989
21.786
24.132
27.437
31.722
36.74
41.881
46.049
48.56
49.338
48.128
44.531
38.804
31.618
24.359
19.416
18.591
22.747
32.943
50.663
76.915
112.34
156.937
207.816
260.498
311.869
358.313
398.843
438.144
477.481
514.843
544.743
550.247
516.202
435.451
305.187
139.595
-36.916
-201.415
-327.548
-399.334
-417.752
-388.674
-327.481
-254.162
-181.326
-121.891
-84.423
-66.731
-63.334
-64.204
-59.904
-48.913
-34.3
-21.537
-13.933
-10.872
-10.393
-9.844
-8.176
-5.791
-2.773
0.169
1.944
2.043
0.17
-3.712
-9.133
-15.711
-23.387
-31.832
-40.446
-48.741
-56.247
-62.591
-67.639
-71.214
-73.062
-73.058
-71.195
-67.506
-62.116
-55.17
-46.798
-37.203
-26.641
-15.363
-3.614
8.397
20.479
32.407
43.924
54.78
64.739
73.631
81.34
87.78
92.903
96.713
99.261
100.647
100.999
100.44
99.076
97.013
94.352
91.227
87.797
84.224
80.665
77.248
74.078
71.244
68.811
66.805
65.214
63.996
63.105
62.509
62.193
62.138
62.324
62.718
63.287
64.011
64.874
65.862
66.961
68.167
69.49
70.97
72.678
74.694
77.085
79.903
83.191
86.988
91.331
96.25
101.742
107.773
114.299
121.273
128.663
136.422
144.481
152.748
161.107
169.433
177.613
185.53
193.054
200.063
206.439
212.069
216.889
220.862
223.961
226.166
227.451
227.801
227.225
225.752
223.419
220.281
216.391
211.824
206.682
201.061
195.049
188.737
182.178
175.415
168.486
161.418
154.239
146.972
139.631
132.222
124.761
117.248
109.679
102.036
94.276
86.368
78.293
70.038
61.602
53.001
44.255
35.401
26.496
17.587
8.716
-0.077
-8.768
-17.331
-25.733
-33.94
-41.912
-49.609
-57.007
-64.081
-70.811
-77.191
-83.232
-88.967
-94.456
-99.755
-104.892
-109.89
-114.745
-119.439
-123.948
-128.232
-132.241
-135.931
-139.259
-142.175
-144.645
-146.623
-148.044
-148.833
-148.886
-148.097
-146.397
-143.737
-140.098
-135.505
-130.01
-123.695
-116.682
-109.09
-101.04
-92.669
-84.106
-75.474
-66.911
-58.556
-50.562
-43.102
-36.321
-30.342
-25.268
-21.15
-18
-15.805
-14.503
-14.016
-14.26
-15.121
-16.474
-18.214
-20.24
-22.46
-24.792
-27.127
-29.364
-31.419
-33.217
-34.724
-35.941
-36.882
-37.585
-38.123
-38.574
-39.057
-39.726
-40.697
-42.062
-43.893
-46.229
-49.123
-52.639
-56.808
-61.64
-67.114
-73.159
-79.703
-86.664
-93.917
-101.321
-108.683
-115.752
-122.319
-128.212
-133.275
-137.383
-140.399
-142.171
-142.594
-141.612
-139.21
-135.429
-130.318
-123.93
-116.377
-107.802
-98.403
-88.445
-78.16
-67.748
-57.417
-47.364
-37.81
-29.009
-21.153
-14.378
-8.785
-4.423
-1.334
0.445
0.933
0.19
-1.687
-4.551
-8.277
-12.761
-17.871
-23.469
-29.388
-35.425
-41.426
-47.284
-52.91
-58.239
-63.217
-67.785
-71.927
-75.654
-78.995
-81.99
-84.671
-87.055
-89.18
-91.097
-92.871
-94.588
-96.303
-98.04
-99.821
-101.653
-103.542
-105.494
-107.493
-109.508
-111.508
-113.468
-115.367
-117.193
-118.92
-120.514
-121.933
-123.138
-124.106
-124.828
-125.301
-125.526
-125.5
-125.233
-124.743
-124.049
-123.164
-122.087
-120.806
-119.313
-117.615
-115.726
-113.672
-111.468
-109.116
-106.618
-103.972
-101.175
-98.229
-95.122
-91.826
-88.334
-84.657
-80.826
-76.906
-72.942
-68.962
-64.991
-61.038
-57.125
-53.287
-49.551
-45.938
-42.479
-39.198
-36.142
-33.377
-30.939
-28.838
-27.055
-25.535
-24.242
-23.157
-22.261
-21.543
-20.984
-20.558
-20.25
-20.054
-19.954
-19.929
-19.941
-19.929
-19.86
-19.723
-19.527
-19.308
-19.088
-18.875
-18.68
-18.512
-18.378
-18.283
-18.223
-18.179
-18.145
-18.12
-18.111
-18.144
-18.229
-18.364
-18.539
-18.731
-18.919
-19.091
-19.235
-19.337
-19.393
-19.407
-19.391
-19.379
-19.4
-19.472
-19.607
-19.807
-20.063
-20.374
-20.736
-21.142
-21.601
-22.115
-22.679
-23.299
-23.967
-24.659
-25.343
-25.959
-26.434
-26.721
-26.784
-26.602
-26.191
-25.565
-24.756
-23.819
-22.792
-21.708
-20.62
-19.563
-18.582
-17.752
-17.151
-16.877
-17.067
-17.817
-19.203
-21.286
-24.074
-27.557
-31.703
-36.434
-41.671
-47.34
-53.344
-59.591
-65.984
-72.385
-78.661
-84.671
-90.232
-95.188
-99.404
-102.753
-105.145
-106.526
-106.86
-106.156
-104.45
-101.783
-98.226
-93.866
-88.796
-83.15
-77.06
-70.649
-64.075
-57.493
-51.054
-44.914
-39.222
-34.091
-29.626
-25.913
-22.992
-20.889
-19.593
-19.054
-19.216
-19.996
-21.31
-23.083
-25.226
-27.63
-30.186
-32.773
-35.258
-37.539
-39.522
-41.109
-42.253
-42.938
-43.203
-43.143
-42.865
-42.483
-42.096
-41.781
-41.633
-41.775
-42.327
-43.429
-45.218
-47.759
-51.16
-55.556
-60.909
-67.052
-73.614
-79.95
-85.5
-89.823
-92.398
-92.847
-91.121
-87.382
-82.325
-77.085
-72.506
-69.312
-68.172
-69.1
-71.561
-74.528
-75.96
-73.377
-64.479
-46.912
-18.745
21.019
72.72
135.653
207.526
283.995
358.77
425.487
479.397
520.436
551.116
571.822
579.634
563.877
513.124
421.737
289.734
130.961
-34.421
-185.924
-302.155
-373.848
-402.001
-393.795
-362.379
-316.017
-260.379
-200.915
-144.058
-103.729
-89.556
-104.077
-143.503
-188.759
-222.094
-234.415
-219.982
-188.222
-153.569
-123.302
-104.298
-95.747
-90.38
-85.469
-79.092
-70.66
-62.903
-56.67
-51.493
-47.357
-43.687
-40.163
-37.06
-34.459
-32.267
-30.478
-29.057
-27.91
-26.981
-26.209
-25.512
-24.858
-24.259
-23.732
-23.299
-22.978
-22.781
-22.709
-22.744
-22.866
-23.043
-23.225
-23.376
-23.452
-23.401
-23.187
-22.775
-22.131
-21.234
-20.062
-18.59
-16.805
-14.709
-12.319
-9.676
-6.832
-3.857
-0.841
2.133
4.975
7.613
9.994
12.081
13.854
15.308
16.453
17.318
17.941
18.375
18.699
19.001
19.381
19.97
20.893
22.271
24.234
26.878
30.271
34.473
39.508
45.385
52.093
59.587
67.804
76.674
86.097
95.965
106.169
116.567
127.036
137.47
147.748
157.785
167.518
176.873
185.797
194.255
202.208
209.645
216.568
222.967
228.849
234.224
239.089
243.455
247.313
250.615
253.328
255.403
256.771
257.398
257.246
256.272
254.454
251.767
248.188
243.72
238.367
232.135
225.058
217.171
208.536
199.257
189.43
179.152
168.535
157.663
146.614
135.473
124.303
113.158
102.095
91.151
80.358
69.756
59.366
49.2
39.258
29.515
19.955
10.569
1.346
-7.715
-16.608
-25.331
-33.869
-42.199
-50.306
-58.169
-65.766
-73.085
-80.106
-86.804
-93.154
-99.124
-104.689
-109.833
-114.54
-118.803
-122.619
-125.99
-128.922
-131.425
-133.509
-135.176
-136.438
-137.304
-137.788
-137.91
-137.695
-137.172
-136.377
-135.351
-134.121
-132.716
-131.154
-129.443
-127.593
-125.612
-123.504
-121.285
-118.968
-116.562
-114.082
-111.538
-108.925
-106.235
-103.44
-100.504
-97.411
-94.159
-90.753
-87.226
-83.613
-79.958
-76.322
-72.75
-69.28
-65.949
-62.781
-59.798
-57.04
-54.551
-52.391
-50.633
-49.324
-48.493
-48.156
-48.299
-48.89
-49.883
-51.202
-52.78
-54.57
-56.523
-58.61
-60.807
-63.071
-65.362
-67.63
-69.81
-71.855
-73.728
-75.394
-76.847
-78.092
-79.151
-80.069
-80.888
-81.632
-82.322
-82.965
-83.564
-84.129
-84.665
-85.177
-85.681
-86.19
-86.712
-87.262
-87.84
-88.442
-89.054
-89.655
-90.224
-90.747
-91.218
-91.631
-91.987
-92.285
-92.529
-92.725
-92.877
-92.986
-93.052
-93.073
-93.049
-92.983
-92.878
-92.737
-92.566
-92.367
-92.141
-91.892
-91.618
-91.32
-90.996
-90.645
-90.264
-89.855
-89.417
-88.953
-88.465
-87.956
-87.427
-86.882
-86.322
-85.749
-85.164
-84.569
-83.965
-83.354
-82.739
-82.122
-81.507
-80.902
-80.312
-79.742
-79.199
-78.688
-78.214
-77.783
-77.401
-77.071
-76.797
-76.587
-76.447
-76.389
-76.422
-76.545
-76.76
-77.057
-77.427
-77.859
-78.345
-78.866
-79.414
-79.983
-80.575
-81.203
-81.882
-82.613
-83.396
-84.214
-85.055
-85.916
-86.798
-87.701
-88.637
-89.615
-90.649
-91.771
-92.996
-94.318
-95.713
-97.129
-98.505
-99.803
-100.993
-102.055
-102.979
-103.745
-104.339
-104.761
-104.995
-105.013
-104.775
-104.212
-103.27
-101.934
-100.202
-98.106
-95.698
-93.003
-90.048
-86.863
-83.456
-79.835
-75.995
-71.897
-67.531
-62.916
-58.09
-53.127
-48.1
-43.053
-38.036
-33.088
-28.225
-23.474
-18.856
-14.372
-10.051
-5.937
-2.086
1.411
4.488
7.116
9.281
10.997
12.292
13.19
13.734
13.99
14.001
13.802
13.423
12.872
12.177
11.385
10.548
9.74
9.022
8.43
7.999
7.752
7.696
7.831
8.137
8.57
9.106
9.733
10.446
11.258
12.174
13.192
14.312
15.531
16.846
18.262
19.782
21.411
23.164
25.06
27.118
29.372
31.841
34.534
37.449
40.576
43.89
47.376
51.012
54.777
58.656
62.633
66.686
70.799
74.955
79.139
83.35
87.585
91.844
96.144
100.51
104.975
109.592
114.396
119.406
124.639
130.095
135.769
141.662
147.754
154.01
160.386
166.819
173.237
179.569
185.721
191.577
197.022
201.921
206.168
209.694
212.434
214.348
215.409
215.598
214.928
213.454
211.243
208.382
204.973
201.114
196.933
192.588
188.228
184.018
180.096
176.561
173.506
171.007
169.111
167.856
167.23
167.163
167.57
168.337
169.34
170.472
171.61
172.633
173.426
173.839
173.745
173.035
171.604
169.438
166.546
162.901
158.658
154.097
149.556
145.627
142.87
141.52
141.85
144.095
148.08
153.732
160.964
169.071
177.512
186.248
195.061
204.12
214.343
226.137
239.754
256.338
276.875
301.987
332.755
369.592
411.724
458.916
511.118
565.757
618.709
666.042
702.458
727.331
745.437
758.549
767.521
765.226
735.364
665.054
544.903
381.646
200.321
31.644
-90.665
-150.894
-155.89
-124.328
-83.987
-51.321
-27.973
-9.871
11.894
40.144
70.869
99.77
122.258
136.192
142.529
143.135
140.203
136.086
132.777
131.285
132.264
136.476
144.063
154.611
167.403
181.039
193.984
205.445
214.908
221.878
226.252
228.05
227.403
224.881
221.152
216.608
211.513
206.04
200.236
194.239
188.227
182.273
176.434
170.795
165.458
160.578
156.3
152.691
149.767
147.499
145.843
144.763
144.227
144.198
144.633
145.48
146.682
148.19
149.951
151.908
153.997
156.137
158.268
160.365
162.417
164.438
166.444
168.448
170.467
172.527
174.649
176.849
179.144
181.541
184.054
186.704
189.514
192.511
195.715
199.135
202.774
206.629
210.694
214.958
219.409
224.029
228.804
233.724
238.779
243.954
249.233
254.592
260.005
265.443
270.87
276.247
281.536
286.703
291.717
296.555
301.192
305.599
309.751
313.624
317.2
320.476
323.45
326.129
328.529
330.679
332.612
334.376
336.01
337.538
338.983
340.354
341.663
342.927
344.149
345.327
346.442
347.457
348.319
348.966
349.315
349.263
348.702
347.513
345.594
342.862
339.24
334.662
329.067
322.387
314.577
305.603
295.458
284.167
271.779
258.366
244.034
228.918
213.161
196.921
180.35
163.586
146.776
130.06
113.591
97.533
82.033
67.23
53.236
40.134
27.98
16.81
6.627
-2.595
-10.892
-18.316
-24.919
-30.751
-35.878
-40.37
-44.319
-47.836
-51.022
-53.973
-56.768
-59.466
-62.113
-64.742
-67.368
-69.986
-72.59
-75.161
-77.683
-80.148
-82.532
-84.808
-86.936
-88.861
-90.54
-91.938
-93.03
-93.803
-94.254
-94.383
-94.204
-93.744
-93.029
-92.091
-90.958
-89.655
-88.214
-86.669
-85.061
-83.436
-81.834
-80.288
-78.83
-77.486
-76.278
-75.229
-74.353
-73.659
-73.155
-72.85
-72.753
-72.874
-73.22
-73.795
-74.601
-75.639
-76.91
-78.414
-80.149
-82.113
-84.299
-86.703
-89.319
-92.138
-95.153
-98.35
-101.716
-105.237
-108.899
-112.686
-116.581
-120.566
-124.622
-128.731
-132.875
-137.032
-141.181
-145.3
-149.367
-153.363
-157.268
-161.063
-164.729
-168.248
-171.602
-174.779
-177.763
-180.538
-183.086
-185.389
-187.435
-189.221
-190.748
-192.018
-193.032
-193.794
-194.311
-194.599
-194.668
-194.522
-194.154
-193.56
-192.743
-191.717
-190.507
-189.136
-187.62
-185.963
-184.169
-182.251
-180.222
-178.089
-175.851
-173.497
-171.039
-168.513
-165.978
-163.494
-161.101
-158.829
-156.697
-154.729
-152.958
-151.42
-150.145
-149.154
-148.474
-148.141
-148.211
-148.736
-149.736
-151.195
-153.07
-155.32
-157.917
-160.842
-164.072
-167.588
-171.369
-175.399
-179.673
-184.182
-188.898
-193.782
-198.775
-203.824
-208.907
-214.023
-219.181
-224.393
-229.664
-234.994
-240.398
-245.868
-251.369
-256.866
-262.306
-267.65
-272.886
-278.002
-282.993
-287.852
-292.552
-297.068
-301.378
-305.45
-309.247
-312.732
-315.853
-318.593
-320.976
-323.027
-324.771
-326.23
-327.403
-328.296
-328.927
-329.307
-329.449
-329.361
-329.047
-328.523
-327.822
-326.979
-326.035
-325.009
-323.886
-322.661
-321.331
-319.895
-318.364
-316.742
-315.022
-313.207
-311.309
-309.34
-307.318
-305.247
-303.122
-300.937
-298.687
-296.373
-294.01
-291.61
-289.179
-286.722
-284.244
-281.751
-279.255
-276.759
-274.26
-271.755
-269.241
-266.717
-264.187
-261.652
-259.112
-256.568
-254.015
-251.453
-248.88
-246.296
-243.699
-241.087
-238.458
-235.812
-233.15
-230.476
-227.79
-225.096
-222.394
-219.689
-216.984
-214.283
-211.588
-208.903
-206.229
-203.57
-200.928
-198.306
-195.705
-193.128
-190.577
-188.054
-185.562
-183.103
-180.68
-178.293
-175.943
-173.628
-171.35
-169.107
-166.897
-164.719
-162.569
-160.445
-158.346
-156.271
-154.216
-152.177
-150.143
-148.107
-146.07
-144.03
-141.99
-139.955
-137.931
-135.931
-133.978
-132.093
-130.296
-128.601
-127.014
-125.547
-124.215
-123.035
-122.031
-121.209
-120.558
-120.066
-119.717
-119.482
-119.329
-119.199
-119.008
-118.681
-118.161
-117.396
-116.357
-115.001
-113.277
-111.144
-108.567
-105.54
-102.094
-98.262
-94.079
-89.612
-84.945
-80.203
-75.561
-71.169
-67.144
-63.601
-60.628
-58.328
-56.825
-56.215
-56.566
-57.922
-60.286
-63.662
-68.062
-73.449
-79.75
-86.835
-94.495
-102.556
-110.902
-119.403
-127.949
-136.417
-144.612
-152.415
-159.792
-166.577
-172.504
-177.193
-180.073
-180.688
-178.847
-174.273
-166.654
-156.099
-142.978
-128.073
-112.693
-97.812
-83.874
-71.491
-61.345
-53.364
-46.967
-40.794
-32.548
-20.394
-3.169
20.519
52.551
94.117
145.588
206.652
274.018
342.737
409.167
468.824
520.648
568.846
612.472
648.169
666.843
649.912
588.781
481.809
334.066
165.043
-9.869
-175.344
-312.094
-408.186
-453.148
-442.835
-383.98
-289.887
-178.911
-69.293
21.137
80.116
104.455
96.898
68.252
33.614
5.28
-10.555
-12.378
-3.74
7.883
19.98
31.522
41.076
51.682
63.423
73.998
82.941
87.823
87.096
81.546
71.863
59.705
47.173
35.998
28.117
24.989
27.022
33.98
44.909
58.232
72.727
87.264
100.356
110.965
118.629
123.208
125.299
125.94
125.712
125.041
124.465
124.218
124.425
125.158
126.097
126.765
126.939
126.512
125.435
123.816
121.727
119.22
116.455
113.585
110.704
107.88
105.136
102.462
99.89
97.47
95.247
93.297
91.696
90.503
89.798
89.647
90.082
91.136
92.828
95.173
98.192
101.898
106.284
111.334
117.019
123.289
130.089
137.331
144.904
152.705
160.625
168.572
176.475
184.265
191.879
199.264
206.371
213.16
219.611
225.704
231.418
236.751
241.706
246.307
250.597
254.611
258.375
261.907
265.211
268.29
271.148
273.778
276.165
278.296
280.148
281.705
282.959
283.888
284.472
284.682
284.484
283.853
282.777
281.244
279.249
276.79
273.863
270.476
266.645
262.385
257.715
252.654
247.221
241.45
235.381
229.054
222.51
215.786
208.914
201.928
194.86
187.732
180.565
173.372
166.152
158.905
151.625
144.293
136.884
129.362
121.673
113.775
105.628
97.187
88.415
79.277
69.754
59.852
49.592
39.008
28.157
17.109
5.951
-5.189
-16.182
-26.892
-37.162
-46.854
-55.821
-63.912
-70.984
-76.918
-81.625
-85.056
-87.194
-88.033
-87.608
-85.994
-83.305
-79.722
-75.432
-70.633
-65.538
-60.368
-55.362
-50.774
-46.85
-43.794
-41.778
-40.936
-41.374
-43.196
-46.458
-51.161
-57.259
-64.637
-73.161
-82.686
-93.045
-104.041
-115.449
-127.023
-138.51
-149.709
-160.443
-170.556
-179.912
-188.365
-195.807
-202.175
-207.439
-211.614
-214.731
-216.826
-217.95
-218.192
-217.66
-216.494
-214.861
-212.888
-210.685
-208.356
-206.004
-203.744
-201.669
-199.832
-198.24
-196.914
-195.898
-195.276
-195.158
-195.595
-196.57
-198.079
-200.132
-202.662
-205.546
-208.492
-210.999
-212.801
-213.93
-214.469
-214.568
-214.467
-214.341
-214.736
-216.63
-220.371
-225.63
-231.752
-237.689
-242.516
-245.645
-245.992
-241.997
-232.975
-219.082
-201.185
-180.938
-159.629
-138.058
-117.445
-99.321
-84.647
-73.876
-66.754
-62.272
-59.84
-59.293
-60.315
-62.546
-65.69
-69.498
-74.061
-79.807
-86.908
-95.263
-104.662
-114.753
-125.263
-135.987
-146.634
-156.832
-166.222
-174.514
-181.505
-187.093
-191.173
-193.616
-194.314
-193.175
-190.174
-185.356
-178.816
-170.68
-161.079
-150.175
-138.179
-125.358
-112.015
-98.447
-84.932
-71.737
-59.148
-47.475
-37.01
-28.016
-20.72
-15.3
-11.907
-10.656
-11.621
-14.811
-20.165
-27.556
-36.809
-47.715
-60.021
-73.44
-87.632
-102.215
-116.815
-131.055
-144.548
-156.925
-167.83
-176.922
-183.926
-188.63
-190.873
-190.564
-187.669
-182.217
-174.322
-164.163
